ECG1,ECG2,ECG3,ECG4,ECG5,ECG6,ECG7
-0.033878283671988134,-0.08985355905062947,0.07611461090540121,-0.042902837513230305,-0.2062934822597134,-0.0582046594067277,-0.21664925032532387
-0.03570207382072485,-0.08954828082055938,0.06916158070504622,-0.04944389512651636,-0.20492967705340354,-0.06514469753621378,-0.24214248081833167
-0.037083733024313274,-0.09031147639573461,0.05288516909966976,-0.05301913158595222,-0.2030993069080929,-0.0686474526298695,-0.2696233191124892
-0.04013719986424369,-0.09122731108594487,0.03376433604869355,-0.05362854689153788,-0.20141249520555177,-0.073263232706556,-0.29589430917986
-0.040593147401427866,-0.09168522843105001,0.01927885646462065,-0.05005331043210202,-0.19972568350301062,-0.08023600686495477,-0.3260540971190455
-0.04044116488903314,-0.09244842400622523,0.004740702409332947,-0.04944389512651636,-0.19807476141116181,-0.08544103546206934,-0.3564731382496853
-0.041657024988190954,-0.09046411551076965,-0.0016329086076591261,-0.046478073972666165,-0.19624439126585122,-0.08950030304724045,-0.3860280020754774
-0.04241693755016459,-0.0892430025904893,-0.006268262074562452,-0.040546431664965764,-0.19423457306707878,-0.09414881915283962,-0.4167062963975715
-0.042568920062559315,-0.09015883728069957,-0.01322129227491744,-0.032827171127547426,-0.19211708603622926,-0.09532731619369575,-0.4460019070319093
-0.043328832624532944,-0.09092203285587479,-0.02307141839208701,-0.030430137592243844,-0.19089683927268886,-0.0987973352584388,-0.47227289709928
-0.04668626448925282,-0.0906167546258047,-0.01843606492518368,-0.032827171127547426,-0.18888702107391642,-0.10400236385555336,-0.496556279365501
-0.04623031695206863,-0.09015883728069957,-0.010324196358102862,-0.030430137592243844,-0.18691309248583635,-0.10285660284360991,-0.5159138509940899
-0.04668626448925282,-0.0906167546258047,0.004740702409332947,-0.020313843519521924,-0.18493916389775628,-0.09938658377886686,-0.527666662340019
-0.04623031695206863,-0.09107467197090983,0.010534894242962105,-0.005484737750270919,-0.1829652353096762,-0.09414881915283962,-0.5364812708494657
-0.04837188871763069,-0.09183786754608506,0.007637798326147526,0.003453353398318727,-0.18081185866813432,-0.088354542035297,-0.5358763467360723
-0.04715602861847288,-0.09168522843105001,0.007637798326147526,0.007028589857754586,-0.1789814885228237,-0.07732250029172712,-0.5259383077303236
-0.04928378379199905,-0.09107467197090983,0.0035818640426071155,0.013569647471040645,-0.17668455343851236,-0.06108542995104268,-0.5081362552504605
-0.049587748816788506,-0.09122731108594487,-0.0016329086076591261,0.03018637147000958,-0.17410050146866207,-0.05064263672790087,-0.479099897807577
-0.05127337304516638,-0.09168522843105001,-0.011483034724828693,0.04387790200216735,-0.17227013132335148,-0.050086124236385476,-0.43779222263585593
-0.04973973132918323,-0.09199050666112009,-0.02017432247527243,0.04566552023188528,-0.16982963779627067,-0.04658336914272976,-0.3862008375364469
-0.05127337304516638,-0.09351689781147055,-0.019015484108546598,0.04209028377244943,-0.16724558582642038,-0.039054082492815605,-0.3190542609497789
-0.051881303094745285,-0.09214314577615514,-0.01611838819173202,0.04387790200216735,-0.16462564424587775,-0.031524795842901444,-0.2401548730171819
-0.05463080490988625,-0.09122731108594487,-0.019594903291909514,0.06053525368817533,-0.1620415922760275,-0.029789786310529923,-0.1478607368594452
-0.053705093243482,-0.0930589804663654,-0.022491999208724092,0.08251483237629806,-0.15960109874894668,-0.031524795842901444,-0.04061633332784293
-0.055694682496649335,-0.09351689781147055,-0.020753741658635347,0.10392562344587417,-0.15655048184009565,-0.03731907296044408,0.07786237516677974
-0.05599864752143879,-0.09290634135133036,-0.03239479979710847,0.11400128983155704,-0.1539664298702454,-0.04078909202518713,0.20843956592927051
-0.05630261254622824,-0.09275370223629532,-0.04282434509764096,0.12411758390427896,-0.15091581296139436,-0.041967589066043254,0.35154732761205326
-0.05599864752143879,-0.0933642586964355,-0.045721441014455536,0.14077493559028692,-0.1480087544953128,-0.04019984350475906,0.5027783559604045
-0.05691054259580715,-0.09412745427161072,-0.045142021831092616,0.15385705081685905,-0.14528114408269308,-0.03964333101324367,0.6619598155133549
-0.05920409687376393,-0.0947380107317509,-0.0555715671316251,0.16096689604869172,-0.14190752067761078,-0.04252410155755865,0.8279682757746023
-0.05874814933657975,-0.09397481515657567,-0.05035679448135886,0.17047377481582798,-0.1387133453259903,-0.04717261766315782,0.9976062807162102
-0.0584441843117903,-0.0933642586964355,-0.04282434509764096,0.18477472065357142,-0.13548328036367746,-0.05064263672790087,1.1689726402675134
-0.0584441843117903,-0.09351689781147055,-0.032974218980471384,0.1990350388042758,-0.13243266345482643,-0.049496875715957414,1.3395612402444537
-0.05996400943573756,-0.0933642586964355,-0.029497703880293893,0.20614488403610848,-0.1290949296604365,-0.04776186618358589,1.5075573083068508
-0.05874814933657975,-0.09412745427161072,-0.026547933492264503,0.20082265703399374,-0.12590075430881603,-0.04370259859841478,1.6681214515475575
-0.05950806189855338,-0.0947380107317509,-0.019594903291909514,0.19545980234483995,-0.122060565964733,-0.041967589066043254,1.8212536699665738
-0.05935607938615865,-0.09504328896182099,-0.017856645741820765,0.19606921765042562,-0.11872283217034306,-0.03964333101324367,1.9628923302311154
-0.06134566863932598,-0.09626440188210134,-0.02017432247527243,0.19009694765568616,-0.11488264382626001,-0.04078909202518713,2.090185647235185
-0.059660044410948104,-0.09534856719189107,-0.033553638163834304,0.1829871024238535,-0.11093478665009987,-0.04370259859841478,2.2026151145958734
-0.05920409687376393,-0.09366953692650558,-0.048039117747907194,0.18237768711826782,-0.10680748142047791,-0.046026856651214365,2.2967240230937906
-0.05981202692334284,-0.09412745427161072,-0.04688027938118137,0.18534350827211804,-0.1031467411298567,-0.046026856651214365,2.3692284989705144
-0.06164963366411544,-0.09489064984678594,-0.045142021831092616,0.19127515057981845,-0.09901943590023474,-0.04252410155755865,2.421597643644286
-0.06149765115172071,-0.0944327325016808,-0.04745969856454428,0.19306276880953638,-0.09489213067061276,-0.039054082492815605,2.4514981783920176
-0.05950806189855338,-0.09397481515657567,-0.05441272876489927,0.19249398119098976,-0.09123139037999155,-0.03614057591958795,2.4578930904478904
-0.059660044410948104,-0.0947380107317509,-0.0555715671316251,0.19960382642282243,-0.0866734098220612,-0.03614057591958795,2.443202076265479
-0.05981202692334284,-0.09534856719189107,-0.060786339781891345,0.20854191757141208,-0.08240254614966978,-0.03325980537527297,2.4070794649228446
-0.06195359868890489,-0.09534856719189107,-0.05499214794826218,0.20732308696024077,-0.0779881240345089,-0.03440556638721643,2.348056155001745
-0.06087590451010592,-0.0944327325016808,-0.05035679448135886,0.20732308696024077,-0.07353781230865566,-0.04137834054561519,2.2706258684873895
-0.061193686126931254,-0.09412745427161072,-0.048039117747907194,0.21089832341967663,-0.06836970836895512,-0.051821133768757,2.1749614408407463
-0.060571939485316466,-0.09366953692650558,-0.05383330958153636,0.21032953580113,-0.0640988446965637,-0.059350420418671154,2.0623591380190884
-0.06072392199771119,-0.0944327325016808,-0.04688027938118137,0.2031790628822583,-0.059038409588940244,-0.060528917459527286,1.9377447706600468
-0.05935607938615865,-0.0947380107317509,-0.03934782999746346,0.17998065358296425,-0.05401386409200916,-0.060528917459527286,1.802241769259924
-0.05950806189855338,-0.09550120630692611,-0.029497703880293893,0.16990498719728137,-0.049132877037847536,-0.0628204394834142,1.6578377416198697
-0.06087590451010592,-0.09565384542196116,-0.022491999208724092,0.17404901127526384,-0.0436417666019157,-0.06340968800384227,1.5099770047604244
-0.060267974460527014,-0.09397481515657567,-0.017277226558457853,0.1776242477346997,-0.038437773051522794,-0.0628204394834142,1.3584867232206188
-0.05996400943573756,-0.09366953692650558,-0.013800711458280357,0.17348022365671723,-0.03312611066905279,-0.06514469753621378,1.2072556948722675
-0.05950806189855338,-0.09504328896182099,-0.019015484108546598,0.15917927781897379,-0.027778558675890425,-0.06458818504469839,1.0599134643957309
-0.060267974460527014,-0.09534856719189107,-0.02423025675881284,0.14016552028470128,-0.02182088330095785,-0.06108542995104268,0.9158551076776157
-0.05814021928700084,-0.09534856719189107,-0.03181538061374556,0.11936414452071083,-0.015576091040486363,-0.056469649874356175,0.778796587128767
-0.05920409687376393,-0.09428009338664577,-0.03587131489728597,0.11164488398329249,-0.00961841566555379,-0.05123188524832893,0.6512440169332432
-0.05950806189855338,-0.09428009338664577,-0.03934782999746346,0.10152858991057058,-0.003983746786852503,-0.04137834054561519,0.532246802055712
-0.06011599194813229,-0.09458537161671585,-0.048039117747907194,0.09559694760287017,0.002296935084311353,-0.035584063428072556,0.42387896802780756
-0.05783625426221139,-0.09550120630692611,-0.063104016515343,0.09974097168085265,0.008541727344782844,-0.03614057591958795,0.32804170492019524
-0.0584441843117903,-0.09550120630692611,-0.08401578158762278,0.1086790628294423,0.015109526101485618,-0.03790832148087214,0.24231531627930122
-0.0584441843117903,-0.09580648453699621,-0.09270706933806652,0.12293938098014669,0.021964441743727314,-0.03731907296044408,0.16955158721112304
-0.05950806189855338,-0.09489064984678594,-0.09618358443824401,0.13959673266615466,0.028532240500430087,-0.03731907296044408,0.10879992268032819
-0.057988236774606114,-0.09412745427161072,-0.09096881178797778,0.15800107489484153,0.035710162638903066,-0.04137834054561519,0.056430778006556236
-0.060571939485316466,-0.09366953692650558,-0.08343636240425986,0.17823366304028537,0.0424215198383753,-0.050086124236385476,0.01650578652259149
-0.05950806189855338,-0.09504328896182099,-0.07995984730408237,0.1918845658854041,0.04959944197684828,-0.05470190431307198,-0.014518178721441727
-0.058596166824185024,-0.09550120630692611,-0.08749229668780027,0.19960382642282243,0.05738748749709146,-0.05064263672790087,-0.039233649640086576
-0.057988236774606114,-0.09626440188210134,-0.0845952007709857,0.20854191757141208,0.0647089680783339,-0.048907627195529345,-0.05504809431879988
-0.05950806189855338,-0.09626440188210134,-0.07822158975399363,0.2132953569549802,0.0721740071023458,-0.05064263672790087,-0.06654165247327458
-0.0590521143613692,-0.0947380107317509,-0.06542169324879467,0.2132953569549802,0.0802491695081279,-0.050086124236385476,-0.07388715956448022
-0.05950806189855338,-0.09366953692650558,-0.056150986314988015,0.21983641456826628,0.08836022152460236,-0.04717261766315782,-0.07717103332290157
-0.05783625426221139,-0.09458537161671585,-0.052674471214810524,0.2192269992626806,0.09596881899138372,-0.04717261766315782,-0.07786237516677974
-0.060267974460527014,-0.0944327325016808,-0.05499214794826218,0.20675429934169415,0.10422342945062764,-0.04776186618358589,-0.0776895397058102
-0.0584441843117903,-0.09397481515657567,-0.060206920598528425,0.1942815994207077,0.111832026917409,-0.044848359610358234,-0.07630685601805384
-0.05783625426221139,-0.09397481515657567,-0.06194517814861717,0.17998065358296425,0.11976363088042163,-0.04137834054561519,-0.07414641275593453
-0.059660044410948104,-0.09458537161671585,-0.06194517814861717,0.15682287197070927,0.1278746828968961,-0.03499481490764449,-0.07293656452914772
-0.061801616176510164,-0.0944327325016808,-0.05846866304843968,0.1419531385144192,0.1359498453026782,-0.029789786310529923,-0.07198596949381524
-0.06104170361453653,-0.09397481515657567,-0.052674471214810524,0.11818594159657855,0.14373789082292138,-0.02281701215213116,-0.07138104538042182
-0.05981202692334284,-0.09321161958140045,-0.05035679448135886,0.09084350821930204,0.15199250128216532,-0.0158442379937324,-0.07215880495478477
-0.060571939485316466,-0.09351689781147055,-0.05383330958153636,0.06882330184414027,0.15931398186340776,-0.01469847698178894,-0.07371432410351067
-0.06104170361453653,-0.0933642586964355,-0.060206920598528425,0.04745313846160321,0.16767626115472878,-0.017022735034588527,-0.07509700779126703
-0.06104170361453653,-0.09397481515657567,-0.06773936998224633,0.03258340500531317,0.17503363134666358,-0.02108200261975964,-0.0776895397058102
-0.06041995697292174,-0.09519592807685603,-0.0770627513872678,0.019501289778741045,0.1827857872562144,-0.025730518725358812,-0.08166475530810972
-0.06240954622608907,-0.09458537161671585,-0.08053926648744529,0.008816208087472514,0.19043027433368812,-0.030935547322473382,-0.08494862906653106
-0.06149765115172071,-0.09260106312126028,-0.08227752403753404,0.006419174552168928,0.1972851899759298,-0.03267055685484491,-0.08892384466883058
-0.062105581201299616,-0.09382217604154063,-0.08575403913771153,0.0028439380927330693,0.20521679393894243,-0.029200537790101858,-0.09410890849791691
-0.06072392199771119,-0.09519592807685603,-0.09502474607151819,-0.0006906706796637454,0.21253827452018487,-0.02628703121687421,-0.09782487090876212
-0.06041995697292174,-0.09489064984678594,-0.08807171587116319,-0.005484737750270919,0.2195726382158884,-0.029789786310529923,-0.101281580128153
-0.0631694587880627,-0.09458537161671585,-0.0776421705706307,-0.01023817713383905,0.22628399541536062,-0.03325980537527297,-0.10646664395723934
-0.06164963366411544,-0.09412745427161072,-0.06252459733198008,-0.012594582982103593,0.23392848249283435,-0.03267055685484491,-0.10957768225469114
-0.06164963366411544,-0.0947380107317509,-0.0445626026477297,-0.016169819441539453,0.24049628124953712,-0.030346298802045316,-0.11363931558747543
-0.060571939485316466,-0.09550120630692611,-0.03123596143038264,-0.02449849528454344,0.24702819039554755,-0.03325980537527297,-0.11700960707638154
-0.06195359868890489,-0.09656968011217143,-0.02307141839208701,-0.0310395528978295,0.2539189956484816,-0.04078909202518713,-0.11934288579947039
-0.06072392199771119,-0.09595912365203126,-0.025968514308901586,-0.03579299228139763,0.26002022946618364,-0.041967589066043254,-0.12279959501886129
-0.06134566863932598,-0.09565384542196116,-0.02538909512553867,-0.040546431664965764,0.2664085801694246,-0.039054082492815605,-0.12478720282001105
-0.060267974460527014,-0.09504328896182099,-0.023650837575449925,-0.04765627689679843,0.2725098139871266,-0.04078909202518713,-0.12556496239437398
-0.061801616176510164,-0.09519592807685603,-0.012641873091554526,-0.05005331043210202,0.27879049585829047,-0.046026856651214365,-0.12876241842231057
-0.060571939485316466,-0.09504328896182099,0.005899540776058779,-0.05541616512125581,0.28471228162253065,-0.04835111470401395,-0.13187345671976236
-0.05935607938615865,-0.09534856719189107,0.01517024770986543,-0.06252601035308848,0.2905263985546938,-0.05355614330112852,-0.1295401779966735
-0.06104170361453653,-0.09626440188210134,0.01111431342632502,-0.06195722273454187,0.2963405154868569,-0.06108542995104268,-0.13126853260636895
-0.06332144130045743,-0.09687495834224151,0.002423025675881284,-0.05956018919923828,0.3018316259227887,-0.06573394605664186,-0.1317006212587928
-0.06240954622608907,-0.0971802365723116,-0.0004740702409332947,-0.05716315566393469,0.3076098532442595,-0.0692039651213849,-0.13135495033685374
-0.06164963366411544,-0.09656968011217143,-0.0074271004412882835,-0.05301913158595222,0.3128138467946524,-0.07385248122698407,-0.13256479856364053
-0.0625615287384838,-0.09489064984678594,-0.01322129227491744,-0.048265692202384095,0.31783839229158345,-0.07732250029172712,-0.13230554537218622
-0.06240954622608907,-0.09458537161671585,-0.006847681257925368,-0.04233404989468369,0.32271937934574507,-0.08370602592969782,-0.1317006212587928
-0.06286549376327324,-0.09580648453699621,-0.006847681257925368,-0.02925193466811157,0.32821048978167694,-0.08720878102335354,-0.13213270991121667
-0.062105581201299616,-0.09519592807685603,-0.013800711458280357,-0.02153267413069324,0.33309147683583856,-0.08544103546206934,-0.13187345671976236
-0.06546301306601948,-0.09489064984678594,-0.008585938808014115,-0.01320399828768925,0.33768534700446123,-0.07444172974741214,-0.13092286168442988
-0.06438531888722052,-0.09519592807685603,-0.010324196358102862,-0.009628761828253393,0.3422433275623916,-0.06108542995104268,-0.13135495033685374
-0.06423333637482578,-0.09534856719189107,-0.015538969008369104,-0.004875322444685261,0.3466936392882448,-0.051821133768757,-0.13057719076249077
-0.06332144130045743,-0.09504328896182099,-0.019594903291909514,-0.0030877042149673323,0.35078505490717443,-0.05064263672790087,-0.1295401779966735
-0.06515904804123003,-0.0944327325016808,-0.01611838819173202,-0.007231728292949805,0.35505591857956587,-0.05064263672790087,-0.1298858489186126
-0.06515904804123003,-0.09382217604154063,-0.008006519624651199,-0.014382201211821523,0.35871665887018706,-0.05241038228918506,-0.12876241842231057
-0.06546301306601948,-0.09428009338664577,-0.009744777174739946,-0.01795743767125738,0.3625568472142701,-0.049496875715957414,-0.12737973473455422
-0.06392937135003633,-0.09428009338664577,-0.019594903291909514,-0.02153267413069324,0.3657510225658906,-0.044848359610358234,-0.12815749430891715
-0.0666788731651773,-0.09534856719189107,-0.026547933492264503,-0.030430137592243844,0.3688016394747416,-0.04137834054561519,-0.1277254056564933
-0.06455111799165113,-0.09458537161671585,-0.03181538061374556,-0.046478073972666165,0.3707755680628217,-0.0454376081307863,-0.12599705104679784
-0.06423333637482578,-0.09260106312126028,-0.037030153264011795,-0.06727944973665662,0.3732160615899025,-0.04835111470401395,-0.12599705104679784
-0.06546301306601948,-0.09397481515657567,-0.037030153264011795,-0.07800515911496418,0.37490287329244365,-0.04776186618358589,-0.12668839289067602
-0.06806053236876572,-0.0947380107317509,-0.037609572447374714,-0.07800515911496418,0.3765896849949848,-0.041967589066043254,-0.12530570920291967
-0.0672868032147562,-0.09428009338664577,-0.03239479979710847,-0.06431362858280641,0.3767332434377543,-0.03672982444001602,-0.12513287374195012
-0.0672868032147562,-0.09382217604154063,-0.013800711458280357,-0.044690455742948235,0.37748692526229394,-0.035584063428072556,-0.12539212693340446
-0.06713482070236147,-0.09321161958140045,0.029128982581790218,-0.03758061051111556,0.3768768018805237,-0.038464833972387535,-0.12470078508952627
-0.06713482070236147,-0.0933642586964355,0.1016090549733695,-0.032827171127547426,0.37536943823144436,-0.04835111470401395,-0.12435511416758718
-0.06698283818996675,-0.09428009338664577,0.18283308958660732,-0.02746431643839364,0.37429274991067346,-0.05355614330112852,-0.12530570920291967
-0.06607094311559839,-0.0947380107317509,0.2402482632107508,-0.026854901132807984,0.37185225638359265,-0.059350420418671154,-0.12496003828098058
-0.06927639246792353,-0.09519592807685603,0.27680434623382927,-0.020313843519521924,0.3686580810319722,-0.06514469753621378,-0.12392302551516332
-0.06759076823954566,-0.09489064984678594,0.33016358557443237,-0.0030877042149673323,0.36485378229858145,-0.06458818504469839,-0.12530570920291967
-0.06759076823954566,-0.0947380107317509,0.3927935318488421,0.005240971628036656,0.3604034705727282,-0.06632319457706992,-0.12418227870661763
-0.06607094311559839,-0.0947380107317509,0.4560555717778295,-0.004875322444685261,0.35566604196133605,-0.0692039651213849,-0.12409586097613286
-0.06652689065278257,-0.09428009338664577,0.499564685001263,-0.022101461749239854,0.34956480814363405,-0.07270672021504061,-0.12496003828098058
-0.0691244099555288,-0.09458537161671585,0.5308533209028604,-0.036971195205529904,0.3430328989976236,-0.0755874907593556,-0.12478720282001105
-0.06789473326433511,-0.09519592807685603,0.553503343525229,-0.05005331043210202,0.3356755288056888,-0.07499824223892754,-0.12409586097613286
-0.06713482070236147,-0.09595912365203126,0.5679888231093019,-0.06788886504224227,0.32806693133890746,-0.07093897465375643,-0.12418227870661763
-0.0666788731651773,-0.09672231922720648,0.5894800073649445,-0.08454621672825025,0.31999176893312536,-0.0686474526298695,-0.12409586097613286
-0.06806053236876572,-0.09733287568734665,0.593535941648485,-0.10116294072721918,0.3106604701531105,-0.06805820410944144,-0.12331810140176991
-0.06652689065278257,-0.09656968011217143,0.6033860677656545,-0.11960791064294508,0.3010420544875567,-0.0692039651213849,-0.12392302551516332
-0.0672868032147562,-0.09489064984678594,0.6057037444991062,-0.13565584702336742,0.2909929634936945,-0.06687970706858531,-0.12392302551516332
-0.0666788731651773,-0.09504328896182099,0.5784183684098343,-0.14040928640693554,0.28044141795013927,-0.06573394605664186,-0.12271317728837651
-0.06821251488116045,-0.09626440188210134,0.5314327400862233,-0.1499161651740718,0.2694591970782756,-0.0692039651213849,-0.12331810140176991
-0.06652689065278257,-0.09626440188210134,0.49145281643418215,-0.16299828040064393,0.2578668528246417,-0.07499824223892754,-0.12271317728837651
-0.06607094311559839,-0.09565384542196116,0.4699616321785395,-0.1831902408590487,0.24598739168546896,-0.08197101639732629,-0.12176258225304401
-0.06759076823954566,-0.09550120630692611,0.45026137994420035,-0.1944847378559029,0.23392848249283435,-0.08544103546206934,-0.12219467090546787
-0.06973234000510771,-0.09626440188210134,0.43224671078873517,-0.19509415316148856,0.221403008361199,-0.08776529351486893,-0.12176258225304401
-0.0685164799059499,-0.09687495834224151,0.4293496148719206,-0.19627235608562082,0.20812385240502398,-0.0860302839824974,-0.12072556948722675
-0.06973234000510771,-0.09519592807685603,0.4305084532386464,-0.20224462608036028,0.19531126138784974,-0.09008955156766851,-0.1205527340262572
-0.06927639246792353,-0.09504328896182099,0.41370529692112185,-0.1915189167020527,0.1817449885461358,-0.09300305814089617,-0.12020706310431811
-0.06942837498031826,-0.09565384542196116,0.3910552742987533,-0.17486156501604472,0.1687529494754997,-0.09182456110004004,-0.1189972148775313
-0.06882044493073936,-0.09565384542196116,0.3644019918640592,-0.15645722278735785,0.15504311819101632,-0.08720878102335354,-0.11951572126043994
-0.06882044493073936,-0.09626440188210134,0.34175196924169066,-0.13447764409923513,0.1415845141813795,-0.07791174881215518,-0.11917005033850085
-0.07187391177066976,-0.09656968011217143,0.31162217170681905,-0.13029299233421363,0.12834124783589684,-0.07791174881215518,-0.11856512622510744
-0.0707962175918708,-0.0947380107317509,0.27680434623382927,-0.13622463464191403,0.11488264382626001,-0.08082525538538284,-0.11873796168607699
-0.07049225256708135,-0.09595912365203126,0.24198652076083954,-0.12793658648594908,0.10131637098454609,-0.08429527445012588,-0.11856512622510744
-0.07003630502989716,-0.09687495834224151,0.19905682672076896,-0.12493013764505984,0.08836022152460236,-0.08661953250292546,-0.11761453118977495
-0.07156994674588031,-0.09656968011217143,0.14569758738016592,-0.13325881348806382,0.07493750712565789,-0.08544103546206934,-0.11778736665074449
-0.07049225256708135,-0.09550120630692611,0.0795911260055787,-0.14337510756078575,0.0619454680550218,-0.08314951343818243,-0.11752811345929018
-0.07094820010426553,-0.09595912365203126,0.01632908607659126,-0.1499161651740718,0.048989318595078074,-0.07676598780021172,-0.11640468296298814
-0.07110018261666025,-0.09656968011217143,-0.0445626026477297,-0.14516272579050368,0.03678685095967401,-0.07093897465375643,-0.11623184750201859
-0.07248184182024868,-0.0974855148023817,-0.10313661463859901,-0.13683404994749968,0.02393837033180738,-0.07211747169461255,-0.11675035388492723
-0.06973234000510771,-0.09809607126252187,-0.15823411152929082,-0.13029299233421363,0.01159234425363386,-0.07617673927978366,-0.11458991062280792
-0.07110018261666025,-0.0974855148023817,-0.20406090148617595,-0.11899849533735943,-0.0006101233817702031,-0.08082525538538284,-0.11536767019717087
-0.07125216512905498,-0.0971802365723116,-0.23134627757544782,-0.10116294072721918,-0.012956149459943726,-0.08429527445012588,-0.11458991062280792
-0.07248184182024868,-0.09672231922720648,-0.2487288530763353,-0.06492304388839207,-0.02458438332426995,-0.08488452297055395,-0.11355289785699066
-0.07110018261666025,-0.09672231922720648,-0.2597378175602307,0.0004875322444685262,-0.03646384446344273,-0.08370602592969782,-0.11338006239602111
-0.07308977186982758,-0.09763815391741673,-0.27253771406542965,0.0944187446787379,-0.04791263027430713,-0.08082525538538284,-0.11242946736068862
-0.07217787679545921,-0.098553988607627,-0.29049970874968,0.20675429934169415,-0.059038409588940244,-0.07905750982409865,-0.1115652900558409
-0.07156994674588031,-0.09870662772266205,-0.30904112261729333,0.31730223577493244,-0.06973351357526499,-0.07850099733258324,-0.11078753048147795
-0.07125216512905498,-0.09977510152790736,-0.3107793801673821,0.4350006451270425,-0.08042861756158971,-0.08314951343818243,-0.10975051771566068
-0.07064423507947606,-0.09962246241287231,-0.3125176377174708,0.5449797939417341,-0.09094427349445264,-0.08370602592969782,-0.10940484679372159
-0.07369770191940649,-0.0974855148023817,-0.3125176377174708,0.6525619092211223,-0.10117281254177662,-0.07732250029172712,-0.10819499856693478
-0.0720258942830645,-0.09763815391741673,-0.31314973137204855,0.7702603185732323,-0.11061178015386859,-0.07270672021504061,-0.10698515034014797
-0.07187391177066976,-0.09931718418280222,-0.30556460751711584,0.8826365009232277,-0.12023019581942238,-0.06979321364181296,-0.10681231487917843
-0.0707962175918708,-0.09901190595273214,-0.2939762238498575,0.9890404132784835,-0.12938204654597543,-0.0692039651213849,-0.10525679573045253
-0.0707962175918708,-0.09901190595273214,-0.28412609773268793,1.0972319438634572,-0.1385338972725285,-0.06805820410944144,-0.10421978296463526
-0.07293778935743285,-0.09916454506776719,-0.27253771406542965,1.2131427349858492,-0.14693206617454185,-0.05876117189824309,-0.10404694750366572
-0.07248184182024868,-0.10008037975797744,-0.2637937518437711,1.3177590291113872,-0.15533023507655525,-0.051821133768757,-0.10188650424154641
-0.07217787679545921,-0.10069093621811763,-0.2527847873598757,1.4283069655446254,-0.16279527410056713,-0.046026856651214365,-0.101281580128153
-0.07172192925827504,-0.10114885356322276,-0.24293466124270613,1.5305668538218988,-0.17076276767427215,-0.03731907296044408,-0.10084949147572915
-0.07384968443180122,-0.10069093621811763,-0.24061698450925448,1.6173475933372965,-0.1774741248737444,-0.02687627973730227,-0.09868904821360984
-0.07217787679545921,-0.09992774064294241,-0.23714046940907696,1.6839363723942895,-0.1843290405159861,-0.0216712511401877,-0.09782487090876212
-0.07293778935743285,-0.10084357533315268,-0.22960802002535907,1.6791829330107213,-0.19057383277645756,-0.0216712511401877,-0.09825695956118598
-0.07217787679545921,-0.10145413179329285,-0.2226549898250041,1.5739572235795978,-0.1966750665941596,-0.02628703121687421,-0.09566442764664282
-0.07369770191940649,-0.10236996648350312,-0.2156492851534343,1.4616216689166415,-0.20263274196909217,-0.03208130833441684,-0.09488666807227986
-0.0720258942830645,-0.10374371851881851,-0.19710787128582097,1.386135426398098,-0.20765728746602324,-0.03384905389570103,-0.09523233899421896
-0.0720258942830645,-0.10343844028874842,-0.17972529578493351,1.3189372320355195,-0.21286128101641616,-0.02628703121687421,-0.09341756665403873
-0.0726338243326434,-0.10236996648350312,-0.16634598009637164,1.2167179714452852,-0.21759870962780833,-0.027465528257730337,-0.09151637658337375
-0.07476157950616957,-0.10450691409399374,-0.14606630867866957,1.0360060194956182,-0.221403008361199,-0.030935547322473382,-0.09168921204434329
-0.0732417543822223,-0.10511747055413391,-0.1141455791224944,0.7898834914130904,-0.22567387203359043,-0.027465528257730337,-0.08909668012980013
-0.07384968443180122,-0.10481219232406383,-0.08285694322089696,0.5122745058753039,-0.23008829414875132,-0.022227763631703097,-0.08849175601640671
-0.07369770191940649,-0.10481219232406383,-0.049197956114633026,0.29174742062737385,-0.23360547599660306,-0.01351997994093281,-0.08805966736398287
-0.07308977186982758,-0.10496483143909886,-0.021333160841998263,0.15978869312455946,-0.23740977472999375,-0.0031099227467036735,-0.08563997091040924
-0.0720258942830645,-0.10618594435937923,-0.01206245390819161,0.07954901122244785,-0.2406398396923066,0.008511367517294264,-0.08425728722265288
-0.0720258942830645,-0.10694913993455445,-0.017856645741820765,0.012960232165454987,-0.24383401504392707,0.014305644634836898,-0.08425728722265288
-0.07369770191940649,-0.10694913993455445,-0.02307141839208701,-0.02925193466811157,-0.24627450857100788,0.01836491222000801,-0.08209684396053359
-0.07232985930785395,-0.10664386170448435,-0.028865610225716168,-0.046478073972666165,-0.24932512547985888,0.02009992175237953,-0.08045490708132291
-0.07141796423348559,-0.10633858347441427,-0.037030153264011795,-0.04765627689679843,-0.25223218394594044,0.02939695396357788,-0.08028207162035336
-0.07049225256708135,-0.10618594435937923,-0.028865610225716168,-0.035183576975811974,-0.2545291190302518,0.040985508198663145,-0.0776895397058102
-0.07172192925827504,-0.105422748784204,-0.017277226558457853,-0.03457416167022632,-0.25725672944287153,0.05257406243374842,-0.07656610920950815
-0.06958035749271299,-0.10618594435937923,-0.010903615541465779,-0.0280737317439793,-0.25941010608441345,0.054898320486548004,-0.0745785014083584
-0.06988432251750244,-0.1067965008195194,-0.014380130641643273,-0.023279664673372124,-0.2613840346724935,0.05375255947460454,-0.07336865318157158
-0.06942837498031826,-0.10694913993455445,-0.021912580025361176,-0.02449849528454344,-0.2638245281995743,0.054309071966119934,-0.07198596949381524
-0.07003630502989716,-0.10771233550972967,-0.026547933492264503,-0.025676698208675713,-0.26551133990211545,0.054309071966119934,-0.06956627304024161
-0.06683085567757202,-0.10725441816462454,-0.03007712306365681,-0.029820722286658184,-0.26748526849019555,0.054309071966119934,-0.06852926027442434
-0.0672868032147562,-0.1057280270142741,-0.027706771858990335,-0.0280737317439793,-0.2691720801927367,0.055487569006976066,-0.06619598155133549
-0.06652689065278257,-0.10435427497895869,-0.021912580025361176,-0.020923258825107583,-0.27085889189527784,0.05722257853934759,-0.06360344963679233
-0.06743878572715092,-0.1057280270142741,-0.024809675942175757,-0.009628761828253393,-0.2728328204833579,0.05722257853934759,-0.06317136098436847
-0.06515904804123003,-0.10527010966916896,-0.028865610225716168,0.014747850395172917,-0.27451963218589903,0.06069259760409063,-0.06075166453079485
-0.06713482070236147,-0.10496483143909886,-0.019015484108546598,0.04863134138573549,-0.2758834373922089,0.05607681752740413,-0.058159132616251684
-0.06485508301644058,-0.10481219232406383,-0.01206245390819161,0.07300795360916179,-0.2773908010412882,0.047925546328149236,-0.057381373041888735
-0.06408135386243106,-0.105422748784204,-0.0074271004412882835,0.08430245060601599,-0.2781803724765203,0.04330976625146273,-0.054616005666376026
-0.06195359868890489,-0.10557538789923905,-0.0022123277910220417,0.08251483237629806,-0.27954417768283013,0.03980701115780702,-0.051418549638439455
-0.0625615287384838,-0.10496483143909886,0.008217217509510441,0.06528869307174347,-0.2807644244463705,0.0375154891339201,-0.050208701411652644
-0.06164963366411544,-0.10465955320902878,0.015749666893228344,0.04566552023188528,-0.2815181062709102,0.035191231081120516,-0.04787542268856379
-0.06149765115172071,-0.10374371851881851,0.017487924443317093,0.029617583851462966,-0.2824512361489117,0.036926240613492034,-0.04467796666062722
-0.05935607938615865,-0.10450691409399374,0.01517024770986543,0.01771367154902312,-0.28381504135522156,0.04563402430426232,-0.04260394112899269
-0.05981202692334284,-0.10435427497895869,0.008796636692873358,0.005809759246583271,-0.2842816062942223,0.05024980438094883,-0.03983857375347998
-0.05996400943573756,-0.10481219232406383,0.009955475059599189,-0.011985167676517935,-0.28503528811876194,0.05316331095417648,-0.035863358151180455
-0.05783625426221139,-0.10527010966916896,0.01111431342632502,-0.01974505590097531,-0.2859325283860711,0.05607681752740413,-0.033875750350030695
-0.0584441843117903,-0.10450691409399374,0.008796636692873358,-0.01320399828768925,-0.2863990933250718,0.05316331095417648,-0.03128321843548753
-0.05935607938615865,-0.10282788382860825,0.0030024448592441996,-0.0006906706796637454,-0.28715277514961146,0.05083905290137689,-0.027480838294157556
-0.05935607938615865,-0.10404899674888861,0.0006847681257925367,0.008206792781886857,-0.2879423465848435,0.05375255947460454,-0.025493230493007796
-0.05660657757101769,-0.10450691409399374,0.0006847681257925367,0.015357265700758575,-0.2885524699666137,0.061871094644946764,-0.02290069857846463
-0.056454595058622964,-0.10450691409399374,-0.006268262074562452,0.024254729162309176,-0.2891625933483839,0.06301685565689022,-0.01970324255052806
-0.0572145076205966,-0.10374371851881851,-0.0074271004412882835,0.027829965621745036,-0.28944971023392285,0.05954683659214718,-0.017110710635984894
-0.05950806189855338,-0.10343844028874842,-0.004530004524473705,0.02364531385672352,-0.28962915828738467,0.05781182705977565,-0.013913254608048322
-0.05753228923742194,-0.10359107940378347,-0.004530004524473705,0.023076526238176905,-0.28977271673015415,0.054309071966119934,-0.011320722693505156
-0.05783625426221139,-0.10420163586392364,-0.009744777174739946,0.021288908008458975,-0.29023928166915486,0.048514794848577306,-0.007777595743629497
-0.05768427174981666,-0.10481219232406383,-0.006268262074562452,0.018323086854608775,-0.29023928166915486,0.04039625967823508,-0.004752975176662471
-0.05768427174981666,-0.10389635763385356,0.006478959959421694,0.0022751504741864554,-0.29038284011192433,0.0375154891339201,-0.001814772340180216
-0.05615063003383351,-0.10389635763385356,0.021017114014709397,-0.009628761828253393,-0.29023928166915486,0.03286697302832093,0.001382683687756355
-0.056758560083412415,-0.10374371851881851,0.03028782094851605,-0.01974505590097531,-0.29023928166915486,0.02939695396357788,0.004580139715692926
-0.0584441843117903,-0.10313316205867834,0.036082012782145206,-0.044690455742948235,-0.29005983361569304,0.028218456922721753,0.006827000708297003
-0.05753228923742194,-0.10389635763385356,0.039558527882322704,-0.0726423044258104,-0.28977271673015415,0.019510673231951468,0.011147887232535613
-0.057062525108201874,-0.10435427497895869,0.03434375523205646,-0.0785739467335108,-0.28944971023392285,0.011392138061609245,0.014691014182411272
-0.05584666500904406,-0.1057280270142741,0.02623188666497564,-0.0726423044258104,-0.28883958685215266,0.009067880008809658,0.017283546096954438
-0.05753228923742194,-0.1057280270142741,0.012852570976413768,-0.07085468619609248,-0.28840891152384424,0.013716396114408834,0.021518014890708276
-0.05539071747185988,-0.10359107940378347,0.009376055876236272,-0.06313542565867414,-0.2879423465848435,0.01895416074043607,0.025147559571068706
-0.055694682496649335,-0.10374371851881851,0.01111431342632502,-0.05480674981567015,-0.2877628985313817,0.021278418793235658,0.027480838294157556
-0.05599864752143879,-0.10465955320902878,0.008796636692873358,-0.04944389512651636,-0.2867220998213031,0.016629902687636484,0.03249306666227434
-0.057062525108201874,-0.10481219232406383,-0.003950585341110789,-0.040546431664965764,-0.2863990933250718,0.010246377049665786,0.036122611342634774
-0.053705093243482,-0.10465955320902878,-0.012641873091554526,-0.03457416167022632,-0.2856454115005322,0.0032736028912670246,0.039060814179117026
-0.0549347699346757,-0.105422748784204,-0.015538969008369104,-0.028642519362525914,-0.28503528811876194,-0.0065799418114467195,0.044073042547233814
-0.05523873495946515,-0.10603330524434418,-0.019594903291909514,-0.02628611351426137,-0.2842816062942223,-0.016433486514160465,0.048048258149533334
-0.05630261254622824,-0.10633858347441427,-0.02307141839208701,-0.02271087705482551,-0.2836714829124521,-0.027465528257730337,0.052196309212802404
-0.055086752447070425,-0.10527010966916896,-0.024809675942175757,-0.01141638005797132,-0.2828819114772201,-0.035584063428072556,0.056430778006556236
-0.057062525108201874,-0.10465955320902878,-0.029497703880293893,0.0004875322444685262,-0.2824512361489117,-0.04019984350475906,0.06101091772224917
-0.05554269998425461,-0.105422748784204,-0.028865610225716168,0.008816208087472514,-0.28184111276714147,-0.04137834054561519,0.06481329786357914
-0.05539071747185988,-0.105422748784204,-0.016697807375094936,0.026042347392027106,-0.2812309893853713,-0.04658336914272976,0.06939343757927206
-0.05447882239749152,-0.10649122258944932,-0.0033711661577478735,0.04148086846686377,-0.2806208660036011,-0.05761541088629963,0.07354148864254113
-0.0549347699346757,-0.10771233550972967,0.01111431342632502,0.04924075669132114,-0.2802978595073698,-0.0686474526298695,0.07933147658502086
-0.05630261254622824,-0.10664386170448435,0.02217595238143523,0.04684372315601756,-0.2800107426218309,-0.07385248122698407,0.08252893261295743
-0.05554269998425461,-0.10511747055413391,0.03028782094851605,0.03794625969446695,-0.2796877361255996,-0.073263232706556,0.08728190778961992
-0.053857075755876734,-0.10618594435937923,0.036661431965508126,0.031405202081180895,-0.27922117118659884,-0.0755874907593556,0.09186204750531284
-0.05584666500904406,-0.10694913993455445,0.03376433604869355,0.02543293208644145,-0.27893405430105994,-0.08720878102335354,0.0954051744551885
-0.055694682496649335,-0.1067965008195194,0.029128982581790218,0.01710425624343746,-0.2783239309192897,-0.10400236385555336,0.10041740282330529
-0.05402287486030734,-0.10649122258944932,0.018699437281257735,0.010603826317190444,-0.2783239309192897,-0.11676941513149476,0.10421978296463526
-0.054782787422280974,-0.10603330524434418,0.018699437281257735,0.00105631986301514,-0.2781803724765203,-0.12200717975752201,0.10802216310596524
-0.05554269998425461,-0.10664386170448435,0.02623188666497564,-0.01023817713383905,-0.277857365980289,-0.11850442466386629,0.11277513828262771
-0.056454595058622964,-0.1067965008195194,0.03028782094851605,-0.017348022365671723,-0.2775702490947501,-0.11385590855826712,0.11692318934589677
-0.05447882239749152,-0.10725441816462454,0.021017114014709397,-0.01974505590097531,-0.27696012571297984,-0.11038588949352407,0.12081198721771153
-0.05402287486030734,-0.10725441816462454,0.01517024770986543,-0.016169819441539453,-0.27663711921674855,-0.10865087996115254,0.12539212693340446
-0.05447882239749152,-0.1067965008195194,0.011693732609687936,-0.007231728292949805,-0.27617055427774784,-0.11329939606675173,0.1310956971453994
-0.05615063003383351,-0.1067965008195194,0.009955475059599189,-0.0013000859852494032,-0.27573987894943947,-0.12662295983420851,0.13429315317333598
-0.05523873495946515,-0.10649122258944932,0.012852570976413768,0.0028439380927330693,-0.2754168724532082,-0.14518428822769253,0.13913254608048323
-0.05340112821869255,-0.10618594435937923,0.01927885646462065,0.011172613935737059,-0.2751297555676692,-0.15097856534523518,0.14423119217908478
-0.05402287486030734,-0.10664386170448435,0.01632908607659126,0.020110705084326705,-0.2746631906286685,-0.14924355581286364,0.14725581274605182
-0.053705093243482,-0.10771233550972967,0.011693732609687936,0.024864144467894835,-0.2746631906286685,-0.14691929776006407,0.15209520565319906
-0.053553110731087275,-0.10817025285483481,0.012273151793050852,0.02722055031615938,-0.27419662568966774,-0.14750854628049212,0.15728026948228538
-0.052185268119534736,-0.10923872666008011,0.017487924443317093,0.018323086854608775,-0.27358650230789755,-0.14636278526854868,0.16082339643216104
-0.05447882239749152,-0.10939136577511516,0.021596533198072313,0.006419174552168928,-0.27329938542235865,-0.1393900111101499,0.16574920706979307
-0.052793198169113646,-0.10755969639469462,0.025652467481612724,-0.00012188306111713155,-0.2728328204833579,-0.13474149500455074,0.17058859997694029
-0.052185268119534736,-0.10694913993455445,0.03028782094851605,-0.0006906706796637454,-0.27236625554435717,-0.13418498251303534,0.17439098011827028
-0.050513460483192746,-0.10878080931497498,0.034923174415419374,0.004062768703904385,-0.2720791386588182,-0.13186072446023575,0.17914395529493274
-0.050513460483192746,-0.10862817019993994,0.034923174415419374,0.01771367154902312,-0.2712895672235862,-0.13127147593980767,0.18389693047159522
-0.051121390532771656,-0.10862817019993994,0.04187620461577436,0.023076526238176905,-0.27085889189527784,-0.13824425009820646,0.18726722196050133
-0.050513460483192746,-0.10893344843001003,0.04882923481612935,0.01710425624343746,-0.2702487685135076,-0.14459503970726448,0.19210661486764857
-0.048675853742420144,-0.11000192223525533,0.05983819930002476,0.014138435089587259,-0.2696386451317374,-0.1498328043332917,0.1963410836614024
-0.05004369635397268,-0.10969664400518525,0.06568506560486873,0.015357265700758575,-0.2688490736965054,-0.15097856534523518,0.19971137515030854
-0.04928378379199905,-0.10923872666008011,0.06626448478823163,0.021288908008458975,-0.26809539187196574,-0.14636278526854868,0.20403226167454713
-0.04776395866805178,-0.10893344843001003,0.05288516909966976,0.031973989699727506,-0.2670187035511948,-0.14518428822769253,0.20826673046830096
-0.04852387123002542,-0.10969664400518525,0.043614462165863115,0.03615864146474902,-0.2667315866656559,-0.14750854628049212,0.2110320978438137
-0.050347661378762135,-0.11015456135029038,0.03318491686533063,0.03672742908329564,-0.26551133990211545,-0.15097856534523518,0.21422955387175024
-0.04943576630439377,-0.11107039604050065,0.03028782094851605,0.042699699078035086,-0.26490121652034526,-0.1498328043332917,0.21803193401308024
-0.04791594118044651,-0.11107039604050065,0.032605497681967716,0.04505610492629963,-0.26368096975680483,-0.1521570623860913,0.22019237727519952
-0.04882783625481487,-0.10878080931497498,0.03144665931524188,0.040912080848317156,-0.26307084637503464,-0.15330282339803475,0.2227849091897427
-0.04821990620523597,-0.11015456135029038,0.023914209931523978,0.03672742908329564,-0.2619941580542637,-0.15097856534523518,0.22520460564331632
-0.04761197615565706,-0.11107039604050065,0.020437694831346484,0.04209028377244943,-0.2609174697334927,-0.15097856534523518,0.22676012479204222
-0.04699022951404227,-0.11061247869539552,0.024493629114886895,0.04924075669132114,-0.25955366452718287,-0.15621632997126242,0.22814280847979856
-0.04973973132918323,-0.1095440048901502,0.032605497681967716,0.033761607929445436,-0.258189859320873,-0.16086484607686158,0.2296119098980397
-0.04791594118044651,-0.1095440048901502,0.04187620461577436,0.02246711093259125,-0.25711317100010206,-0.15968634903600545,0.2296119098980397
-0.04761197615565706,-0.10984928312022028,0.0505674923662181,0.029008168545877306,-0.2554263592975609,-0.15736209098320586,0.2299575808199788
-0.04607833443967391,-0.11030720046532543,0.0615764568501135,0.027829965621745036,-0.2539189956484816,-0.16027559755643353,0.23013041628094832
-0.04745999364326233,-0.1109177569254656,0.06916158070504622,0.026651762697612765,-0.2525193008314794,-0.1666591231944042,0.2290069857846463
-0.04653428197685809,-0.10969664400518525,0.0720586766218608,0.03018637147000958,-0.25129905406793895,-0.17012914225914727,0.2277971375578595
-0.04653428197685809,-0.10969664400518525,0.0720586766218608,0.026042347392027106,-0.24964813197609018,-0.17071839077957532,0.22701937798349653
-0.04531842187770028,-0.10908608754504506,0.06626448478823163,0.027829965621745036,-0.24857144365531922,-0.1759234193766899,0.22416759287749904
-0.04668626448925282,-0.10817025285483481,0.0685821615216833,0.033761607929445436,-0.24659751506723915,-0.18404195454703212,0.22200714961537976
-0.04455850931572664,-0.10817025285483481,0.07437635335531245,0.04566552023188528,-0.24505426180746748,-0.1968090058229735,0.21863685812647363
-0.04440652680333192,-0.10847553108490489,0.07147925743849788,0.05456298369343589,-0.24293677477661793,-0.21595958273688562,0.21483447798514366
-0.04455850931572664,-0.10893344843001003,0.05752052256657309,0.05752880484728609,-0.24092695657784552,-0.23452091113036963,0.21085926238284414
-0.04607833443967391,-0.10923872666008011,0.051146911549581016,0.067645098920008,-0.23895302798976545,-0.24319595879222725,0.2066247935890903
-0.043798596753753014,-0.10969664400518525,0.04882923481612935,0.08430245060601599,-0.23679965134822353,-0.2507579814710541,0.20092122337709534
-0.04623031695206863,-0.10923872666008011,0.04535271971595186,0.09084350821930204,-0.23482572276014346,-0.24378520731265532,0.19573615954800902
-0.04440652680333192,-0.10725441816462454,0.043035042982500195,0.08312424768188371,-0.23238522923306265,-0.2264023759600274,0.18890915883971202
-0.043798596753753014,-0.1071017790495895,0.04477330053258895,0.07776139299272992,-0.23026774220221313,-0.19739825434340158,0.18311917089723226
-0.04348081513692768,-0.10847553108490489,0.043614462165863115,0.0700421324553116,-0.2276478006216705,-0.16374561662117657,0.17750201841572208
-0.04211297252537514,-0.10847553108490489,0.043035042982500195,0.06289165953643988,-0.2253867551480515,-0.13997925963057797,0.16955158721112304
-0.04471049182812137,-0.10847553108490489,0.047670396449403525,0.06289165953643988,-0.22215669018573866,-0.12429870178140892,0.1628110042333108
-0.043328832624532944,-0.10847553108490489,0.054044007466395594,0.05992583838258968,-0.22003920315488915,-0.10750511894920908,0.15667534536889197
-0.04272090257495404,-0.10923872666008011,0.05694110338321017,0.05220657784517135,-0.2171321446888076,-0.08544103546206934,0.14811999005089954
-0.0413530599634015,-0.10939136577511516,0.055782265016484346,0.05456298369343589,-0.21422508622272604,-0.052966894780700456,0.14129298934260254
-0.0413530599634015,-0.10984928312022028,0.06389413358356516,0.0587476354584574,-0.2108873524283361,-0.008904199864246306,0.1345524063647903
-0.04272090257495404,-0.10923872666008011,0.07901170682221578,0.06171345661230761,-0.20812385240502398,0.04039625967823508,0.1261698865077674
-0.04211297252537514,-0.10908608754504506,0.09523544395637742,0.07122033537944386,-0.20431955367163332,0.09549099633825911,0.11917005033850085
-0.040897112426217325,-0.11000192223525533,0.10045021660664366,0.08011779884099447,-0.20155605364832122,0.16102852622142494,0.11242946736068862
-0.0413530599634015,-0.11076511781043055,0.09697370150646617,0.09856276875672038,-0.19775175491493055,0.2410681169129037,0.10361485885124186
-0.04241693755016459,-0.11137567427057074,0.09987079742328075,0.1057132416755921,-0.1944140211205406,0.34081479700980993,0.09670144041246008
-0.0407451299138226,-0.1112230351555357,0.10276789334009533,0.09856276875672038,-0.19118395615822778,0.4608905510614844,0.09030652835658694
-0.04150504247579623,-0.10984928312022028,0.09871195905655492,0.0944187446787379,-0.187666774310376,0.5855820851898453,0.08105983119471631
-0.043328832624532944,-0.11183359161567587,0.08480589865584494,0.1003503869864383,-0.1841854820732166,0.7079493612654068,0.07388715956448022
-0.043328832624532944,-0.11244414807581604,0.07669403008876412,0.10806964752385663,-0.18081185866813432,0.8488779657344522,0.06757866523909185
-0.04180900750058568,-0.11198623073071091,0.06742332315495747,0.11221367160183911,-0.17761768331651384,0.988071560671126,0.05824555034673645
-0.04302486759974349,-0.11168095250064082,0.06389413358356516,0.1175765262909929,-0.17410050146866207,1.1144981043318585,0.05202347375183286
-0.043328832624532944,-0.11152831338560577,0.06684390397159455,0.12769282036371482,-0.1702962027352714,1.2432816420743031,0.04588781488741403
-0.04471049182812137,-0.11183359161567587,0.07495577253867537,0.130658641517565,-0.16706613777295856,1.359854641032322,0.03785096595233022
-0.04440652680333192,-0.11244414807581604,0.0720586766218608,0.13004922621197937,-0.16401552086410756,1.432921457565402,0.03171530708791139
-0.04745999364326233,-0.11152831338560577,0.07553519172203829,0.13780911443643673,-0.1606777870697176,1.4572770630764287,0.025493230493007796
-0.04653428197685809,-0.11030720046532543,0.08886183293938535,0.15564466904657698,-0.15716060522186584,1.4271271804478594,0.01736996382743921
-0.04699022951404227,-0.10878080931497498,0.10682382762363574,0.16336392958399532,-0.15443299480924613,1.3656489181498646,0.011579975884959473
-0.04623031695206863,-0.10771233550972967,0.11788546657874595,0.16393271720254193,-0.15152593634316455,1.2850200789379578,0.006394912055873142
-0.04791594118044651,-0.10740705727965957,0.12078256249556053,0.15800107489484153,-0.14847531943431355,1.1626528028623964,-0.0010370127658172663
-0.04882783625481487,-0.1067965008195194,0.1196237241288347,0.14374075674413714,-0.145568260968232,1.0153406727553804,-0.006394912055873142
-0.04943576630439377,-0.1057280270142741,0.11846488576210887,0.12948043859343275,-0.1428047609449199,0.9155939926584741,-0.011320722693505156
-0.04821990620523597,-0.10496483143909886,0.11440895147856846,0.1205423474448431,-0.1405437154713009,0.862790778022337,-0.017888470210347843
-0.05096940802037692,-0.10282788382860825,0.11145918109053907,0.1086790628294423,-0.13824678038698957,0.8291708763290246,-0.02255502765652554
-0.05004369635397268,-0.09962246241287231,0.10856208517372448,0.09795335345113472,-0.13641641024167894,0.7920482195420566,-0.026270990067370745
-0.04913180127960432,-0.09702759745727656,0.11261801945726489,0.09263112644901997,-0.13487315698190724,0.7328942152968615,-0.03171530708791139
-0.05157733806995583,-0.09611176276706629,0.11440895147856846,0.09141229583784866,-0.1335093517755974,0.6511196150730112,-0.03569052269021091
-0.05402287486030734,-0.09458537161671585,0.11556778984529428,0.09795335345113472,-0.13243266345482643,0.5670207567963613,-0.03871514325717794
-0.05294518068150837,-0.09260106312126028,0.11382953229520554,0.1057132416755921,-0.13121241669128603,0.47886263093454035,-0.04346811843384041
-0.053553110731087275,-0.0906167546258047,0.11788546657874595,0.11046668105916023,-0.13031517642397691,0.39535302117831855,-0.04683840992274653
-0.054326839885096796,-0.08954828082055938,0.11440895147856846,0.1259052021339969,-0.12938204654597543,0.3176376885396394,-0.049171688645835376
-0.054326839885096796,-0.08832716790027903,0.10798266599036158,0.1371996991308511,-0.12877192316420522,0.24224661395375982,-0.0537518283615283
-0.053705093243482,-0.08664813763489354,0.10624440844027282,0.14134372320883354,-0.1278746828968961,0.1552342491038823,-0.05496167658831511
-0.05447882239749152,-0.08390063356426274,0.10856208517372448,0.15089122966300886,-0.12740811795789536,0.06360610417731828,-0.05764062623334305
-0.0572145076205966,-0.08176368595377212,0.10102963579000658,0.1663297507378455,-0.12679799457612514,-0.01990350557890351,-0.06118375318321871
-0.05691054259580715,-0.08008465568838663,0.09755312068982909,0.1805900688885499,-0.12618787119435496,-0.0987973352584388,-0.06299852552339892
-0.05753228923742194,-0.0782529863079661,0.10218847415673242,0.19009694765568616,-0.12572130625535421,-0.16201060708880505,-0.06412195601970096
-0.05660657757101769,-0.07596339958244043,0.11145918109053907,0.1865217111962503,-0.12529063092704584,-0.21478108569602947,-0.06714657658666799
-0.058596166824185024,-0.07418260990703159,0.12483849677910094,0.1776242477346997,-0.12496762443081455,-0.26814081282368196,-0.06913418438781775
-0.05935607938615865,-0.07051927114619051,0.13584746126299635,0.18534350827211804,-0.12450105949181381,-0.3099119857162492,-0.0699119439621807
-0.060571939485316466,-0.06502426300492892,0.1491741024803434,0.19545980234483995,-0.12407038416350542,-0.33773761029201893,-0.07250447587672387
-0.05996400943573756,-0.06273467627940325,0.1532300367638838,0.20082265703399374,-0.1238909361100436,-0.3626824643234737,-0.07388715956448022
-0.062105581201299616,-0.059529254863667315,0.14627700656352882,0.21626117810883042,-0.12346026078173522,-0.3713902480142439,-0.07414641275593453
-0.06438531888722052,-0.05556063787275616,0.1422210722799884,0.22934329333540251,-0.12313725428550394,-0.3719467605057593,-0.07596118509611476
-0.06423333637482578,-0.050981464421704835,0.1422210722799884,0.23291852979483837,-0.12252713090373374,-0.37312525754661546,-0.07708461559241679
-0.06561499557841421,-0.0464022909706535,0.15380945594724674,0.22816509041127025,-0.12224001401819481,-0.3702117509733878,-0.07751670424484065
-0.06561499557841421,-0.04258631309477739,0.16892702918589733,0.21687059341441606,-0.12162989063642461,-0.36035820627067405,-0.07872655247162746
-0.06882044493073936,-0.03892297433393632,0.1747212210195265,0.20732308696024077,-0.1214504425829628,-0.34179687787719004,-0.07993640069841428
-0.06774275075194038,-0.03556491380316534,0.16892702918589733,0.19960382642282243,-0.12162989063642461,-0.31452776579293573,-0.08028207162035336
-0.06774275075194038,-0.03174893592728924,0.16487109490235693,0.19724742057455788,-0.12130688414019333,-0.28378863464393833,-0.08054132481180767
-0.06942837498031826,-0.027322401591272947,0.1526506175805209,0.19842562349869017,-0.12162989063642461,-0.26699505181173855,-0.08175117303859449
-0.07187391177066976,-0.023353784600361794,0.14511816819680298,0.20972012049554434,-0.12224001401819481,-0.2553737615477406,-0.08209684396053359
-0.07064423507947606,-0.01938516760945064,0.138165137996448,0.22398043864624873,-0.12191700752196354,-0.24843372341825448,-0.08226967942150312
-0.06942837498031826,-0.01587446796364462,0.13352978452954467,0.233487317413385,-0.12238357246096428,-0.24378520731265532,-0.08330669218732038
-0.06942837498031826,-0.014500715928329218,0.13063268861273009,0.23767196917840652,-0.12313725428550394,-0.2379909301951127,-0.0823560971519879
-0.06806053236876572,-0.012974324777978774,0.13063268861273009,0.2436036114861069,-0.1238909361100436,-0.23452091113036963,-0.08330669218732038
-0.06591896060320367,-0.012669046547908685,0.13642688044635926,0.250144669099393,-0.12482406598804509,-0.231607404557142,-0.08373878083974425
-0.06332144130045743,-0.012058490087768508,0.14627700656352882,0.25550752378854674,-0.1263314296371244,-0.22581312743959936,-0.08270176807392698
-0.06347342381285216,-0.009310986017137708,0.15033294084706922,0.2632267843259651,-0.1278746828968961,-0.216516095228401,-0.0839116163007138
-0.05981202692334284,-0.009921542477277886,0.15380945594724674,0.27748710247666947,-0.12970505304220672,-0.2083975600580588,-0.08434370495313766
-0.05599864752143879,-0.011905850972733464,0.16197399898554235,0.30125429939451015,-0.13200198812651806,-0.20260328294051616,-0.08347952764828993
-0.05172932058235056,-0.012974324777978774,0.1608151606188165,0.3095829752375141,-0.13426303360013706,-0.1991332638757731,-0.0839116163007138
-0.04913180127960432,-0.014805994158399307,0.1567065518640613,0.3066171540836639,-0.13702653362344916,-0.19566324481103006,-0.08408445176168335
-0.04592635192727918,-0.01694294176888993,0.15380945594724674,0.3066171540836639,-0.14022070897506964,-0.195073996290602,-0.08330669218732038
-0.04241693755016459,-0.019232528494415594,0.15033294084706922,0.3179116510805181,-0.14388144926569085,-0.19101472870543088,-0.0839116163007138
-0.036461986382698486,-0.021980032565046395,0.15554771349733548,0.32026805692878263,-0.1477216376097739,-0.1823069450146606,-0.08408445176168335
-0.03509414377114595,-0.02457489752064215,0.1602357414354536,0.3161240328508002,-0.15213605972493477,-0.1712749032710907,-0.08330669218732038
-0.030976799344452445,-0.025948649555957548,0.16545051408571984,0.3238432933882185,-0.15748361171809713,-0.1672156356859196,-0.08408445176168335
-0.026085725763749425,-0.028238236281483215,0.16660935245244568,0.33574720569065836,-0.16218515071879694,-0.1695398937387192,-0.08373878083974425
-0.024413918127407435,-0.03083310123707897,0.1706652867359861,0.33989122976864083,-0.16799926765096004,-0.17071839077957532,-0.08270176807392698
-0.02426193561501271,-0.03312268796260463,0.17182412510271192,0.3351377903850727,-0.17442350796489337,-0.1718641517915188,-0.08408445176168335
-0.02105648626268757,-0.03571755291820039,0.17298296346943776,0.33871302684450855,-0.18081185866813432,-0.17651266789711798,-0.08408445176168335
-0.017851036910362425,-0.0381597787587611,0.17645947856961525,0.34407588153366236,-0.187666774310376,-0.179982686961861,-0.08304743899586607
-0.016483194298809886,-0.039380891679041456,0.18051541285315567,0.3452540844577946,-0.194844696448849,-0.17710191641754602,-0.0845165404141072
-0.015405500120010917,-0.039380891679041456,0.17588005938625234,0.35000752384136274,-0.2024891835263227,-0.17477765836474643,-0.08425728722265288
-0.014493605045642557,-0.04075464371435686,0.1776183169363411,0.36308963906793484,-0.20966710566479568,-0.17651266789711798,-0.08304743899586607
-0.013277744946484746,-0.04304423043988252,0.18457134713669607,0.3862880483672289,-0.2171321446888076,-0.18171769649423253,-0.0845165404141072
-0.016483194298809886,-0.04380742601505774,0.19905682672076896,0.39518551182877953,-0.22459718371281948,-0.17939343844143293,-0.08425728722265288
-0.015101535095221464,-0.04396006513009279,0.2106978848592421,0.39932953590676196,-0.23238522923306265,-0.17477765836474643,-0.08330669218732038
-0.015101535095221464,-0.04426534336016288,0.21301556159269375,0.41598688759276997,-0.23956315137153564,-0.1695398937387192,-0.08468937587507674
-0.014341622533247831,-0.04548645628044323,0.21649207669287124,0.4249249787413596,-0.24641806701377733,-0.1672156356859196,-0.08434370495313766
-0.016179229274020435,-0.04670756920072359,0.2228656877098633,0.4249249787413596,-0.25345243070948087,-0.16315636810074852,-0.08365236310925948
-0.017851036910362425,-0.04823396035107403,0.22808046036012955,0.4231373605116417,-0.26002022946618364,-0.15621632997126242,-0.0845165404141072
-0.018610949472336057,-0.049455073271354386,0.2298187179102183,0.41895270874662016,-0.26551133990211545,-0.15274631090651936,-0.08468937587507674
-0.01815500193515188,-0.05021826884652961,0.2257627836266779,0.40708942413121935,-0.27085889189527784,-0.15156781386566323,-0.0839116163007138
-0.019384678626345575,-0.05159202088184501,0.22750104117676664,0.3904320724452114,-0.27573987894943947,-0.1498328043332917,-0.08408445176168335
-0.02090450375029284,-0.05311841203219545,0.2263422028100408,0.3874662512913612,-0.2802978595073698,-0.14459503970726448,-0.0845165404141072
-0.019840626163529756,-0.05510272052765103,0.22460394525995206,0.3987607482882154,-0.2842816062942223,-0.14518428822769253,-0.08434370495313766
-0.021208468775082295,-0.05785022459828183,0.21707149587623417,0.40233598474765125,-0.28733222320307333,-0.14750854628049212,-0.08408445176168335
-0.020448556213108662,-0.06166620247415794,0.2147538191427825,0.4035141876717835,-0.29023928166915486,-0.1457735367481206,-0.08408445176168335
-0.022424328874240108,-0.06532954123499901,0.2078007889424275,0.41659630289835564,-0.29267977519623567,-0.14691929776006407,-0.08373878083974425
-0.02136045128747702,-0.06914551911087512,0.20137450345422062,0.4367882633567604,-0.29465370378431577,-0.1457735367481206,-0.08365236310925948
-0.020296573700713933,-0.07189302318150592,0.2042715993710352,0.4599866726560545,-0.29540738560885543,-0.14924355581286364,-0.08373878083974425
-0.021512433799871746,-0.07387733167696149,0.2106978848592421,0.4807880484200449,-0.297237755754166,-0.15621632997126242,-0.08408445176168335
-0.023198058028249622,-0.07871090365307123,0.2106978848592421,0.49565778187633497,-0.29799143757870566,-0.16548062615354808,-0.08330669218732038
-0.022742110491065445,-0.0823742424139123,0.2222862685265004,0.508739897102907,-0.2986015609604759,-0.16606987467397616,-0.08304743899586607
-0.02090450375029284,-0.08680077674992859,0.23213639464366997,0.5158497423347398,-0.29892456745670715,-0.1672156356859196,-0.08373878083974425
-0.022742110491065445,-0.09076939374083974,0.24604245504437994,0.517027945258872,-0.2992116843422461,-0.16548062615354808,-0.08287460353489653
-0.022576311386634833,-0.09489064984678594,0.2605806090996676,0.5176373605644576,-0.2995346908384774,-0.16142135856837697,-0.08330669218732038
-0.02426193561501271,-0.0988592668376971,0.2623188666497564,0.5134933364864752,-0.2996782492812468,-0.15680557849169047,-0.08373878083974425
-0.024109953102617983,-0.10145413179329285,0.265215962566571,0.5075210664917358,-0.2998218077240163,-0.15330282339803475,-0.08287460353489653
-0.02701143743015367,-0.10496483143909886,0.2686924776667485,0.5057334482620178,-0.30028837266301706,-0.14518428822769253,-0.08330669218732038
-0.027163419942548398,-0.10847553108490489,0.27043073521683725,0.5158497423347398,-0.30028837266301706,-0.13533074352497879,-0.0839116163007138
-0.02792333250452203,-0.11107039604050065,0.27390725031701474,0.5117057182567573,-0.30075493760201777,-0.13241723695175114,-0.08270176807392698
-0.027771349992127305,-0.11412317834120153,0.27680434623382927,0.4867196907277453,-0.30136506098378796,-0.13300648547217922,-0.08373878083974425
-0.030064904270084087,-0.11717596064190242,0.2814396997007326,0.45702085150220423,-0.30150861942655743,-0.13068222741937963,-0.0839116163007138
-0.03249662446839971,-0.11824443444714773,0.2814396997007326,0.42967841812492774,-0.3019751843655582,-0.12835796936658003,-0.08270176807392698
-0.03403026618438286,-0.11793915621707765,0.27796318460055514,0.4011171541364799,-0.3019751843655582,-0.12547719882226505,-0.08434370495313766
-0.034182248696777585,-0.11961818648246313,0.2698513160334743,0.3732059331406568,-0.3030518726863291,-0.12606644734269312,-0.0845165404141072
-0.03677976799952382,-0.12175513409295376,0.2669542201166597,0.3535827603007986,-0.30366199606809935,-0.13186072446023575,-0.085726388640894
-0.03890752317304999,-0.12221305143805888,0.2611600282830306,0.3292061480773723,-0.30427211944986954,-0.13997925963057797,-0.0854671354494397
-0.03814761061107636,-0.12206041232302384,0.2611600282830306,0.30125429939451015,-0.3050258012744092,-0.14053577212209337,-0.08589922410186356
-0.040897112426217325,-0.1219077732079888,0.2646365433832081,0.2798841360119731,-0.30610248959518016,-0.1457735367481206,-0.08589922410186356
-0.04395057926614774,-0.12144985586288366,0.2657953817499339,0.2614391660962472,-0.3068561714197198,-0.15156781386566323,-0.08684981913719605
-0.04531842187770028,-0.1219077732079888,0.2588423515495789,0.25132287202352527,-0.3077534116870289,-0.15680557849169047,-0.08693623686768082
-0.04425454429093719,-0.12206041232302384,0.2657953817499339,0.24717884794554276,-0.30883010000779987,-0.15854058802406198,-0.08650414821525695
-0.04623031695206863,-0.1219077732079888,0.27274841195028887,0.24717884794554276,-0.30958378183233953,-0.15968634903600545,-0.08745474325058945
-0.04715602861847288,-0.12129721674784862,0.28201911888409553,0.24421302679169257,-0.310516911710341,-0.1590971005155774,-0.08710907232865037
-0.04745999364326233,-0.12022874294260331,0.2895515682678134,0.2347061480245563,-0.31080402859587997,-0.1550378329304063,-0.08710907232865037
-0.04699022951404227,-0.119160269137358,0.2953457601014426,0.22101461749239854,-0.31188071691665087,-0.1480977948009202,-0.08788683190301332
-0.04989171384157796,-0.11839707356218278,0.2988222752016201,0.20854191757141208,-0.31234728185565164,-0.14053577212209337,-0.08788683190301332
-0.04852387123002542,-0.11839707356218278,0.2883927299010876,0.19367218411512202,-0.3124908402984211,-0.13474149500455074,-0.08788683190301332
-0.04821990620523597,-0.11900763002232295,0.2802808613340068,0.1746584265808495,-0.3129574052374218,-0.12780145687506464,-0.08866459147737626
-0.04699022951404227,-0.11931290825239305,0.27564550786710346,0.16218572665986306,-0.3138905351154233,-0.12374218928989353,-0.087627578711559
-0.04745999364326233,-0.1194655473674281,0.26753363930002266,0.15682287197070927,-0.3138905351154233,-0.12374218928989353,-0.08831892055543718
-0.04852387123002542,-0.12038138205763836,0.2623188666497564,0.1502818143574232,-0.31450065849719355,-0.12082868271666587,-0.08892384466883058
-0.04776395866805178,-0.1194655473674281,0.2576835131828531,0.13959673266615466,-0.3143212104437317,-0.12315294076946547,-0.08693623686768082
-0.04683824700164754,-0.11732859975693746,0.2559452556327643,0.13659028382526542,-0.314644216939963,-0.12606644734269312,-0.08883742693834581
-0.04592635192727918,-0.11763387798700756,0.25009838932792033,0.13126805682315068,-0.31478777538273245,-0.12835796936658003,-0.08866459147737626
-0.047308011130867605,-0.11854971267721783,0.2437247783109283,0.12529578682841122,-0.314644216939963,-0.13127147593980767,-0.08805966736398287
-0.04562238690248973,-0.11839707356218278,0.22692162199340374,0.12708340505812915,-0.314644216939963,-0.12953646640743616,-0.08944235105173921
-0.04623031695206863,-0.11839707356218278,0.22054801097641166,0.12293938098014669,-0.3143212104437317,-0.12374218928989353,-0.08831892055543718
-0.04562238690248973,-0.11870235179225287,0.22402452607658915,0.11997355982629648,-0.3138905351154233,-0.12315294076946547,-0.08892384466883058
-0.04683824700164754,-0.119160269137358,0.2257627836266779,0.11997355982629648,-0.3138905351154233,-0.12606644734269312,-0.09004727516513263
-0.04715602861847288,-0.11931290825239305,0.21996859179304873,0.1205423474448431,-0.31356752861919207,-0.13359573399260727,-0.09065219927852602
-0.04683824700164754,-0.1188549909072879,0.22460394525995206,0.11936414452071083,-0.3134239701764226,-0.13824425009820646,-0.08970160424319353
-0.04973973132918323,-0.11839707356218278,0.2298187179102183,0.12708340505812915,-0.3129574052374218,-0.1393900111101499,-0.09125712339191944
-0.05340112821869255,-0.1188549909072879,0.23561290974384747,0.13004922621197937,-0.31234728185565164,-0.14112502064252141,-0.09151637658337375
-0.05554269998425461,-0.11961818648246313,0.2402482632107508,0.12769282036371482,-0.31188071691665087,-0.14112502064252141,-0.09203488296628239
-0.056454595058622964,-0.12068666028770844,0.24140710157747663,0.12411758390427896,-0.311593600031112,-0.13880076258972185,-0.09186204750531284
-0.061193686126931254,-0.12175513409295376,0.24140710157747663,0.11818594159657855,-0.31112703509211126,-0.13474149500455074,-0.09263980707967578
-0.06576697809080893,-0.12007610382756827,0.2332952330103958,0.11400128983155704,-0.3106604701531105,-0.13068222741937963,-0.09341756665403873
-0.07141796423348559,-0.12175513409295376,0.22402452607658915,0.1092478504479889,-0.310516911710341,-0.12547719882226505,-0.09281264254064533
-0.07568729117257382,-0.1246552772786196,0.21301556159269375,0.09616573522141679,-0.3100503467713403,-0.11968292170472242,-0.09428174395888646
-0.08407396253835554,-0.1267922248891102,0.2002156650874948,0.07536435945742634,-0.30929666494680064,-0.11735866365192282,-0.09523233899421896
-0.08942098365624274,-0.12938708984470598,0.19500089243722854,0.05752880484728609,-0.30915310650403116,-0.11385590855826712,-0.0948002503417951
-0.0962878298980772,-0.13228723303037182,0.18746844305351065,0.04387790200216735,-0.30897365845056934,-0.11212089902589559,-0.09609651629906667
-0.10162103442392852,-0.1373243238265283,0.17240354428607485,0.039124462618599226,-0.30854298312226097,-0.1115643865343802,-0.09687427587342963
-0.1104774699189303,-0.1438878057730352,0.15091236003043215,0.037336844388881296,-0.3082199766260297,-0.10865087996115254,-0.09523233899421896
-0.11856017625992259,-0.1518250397548575,0.1387445571798109,0.03315219262385978,-0.3079328597404908,-0.11271014754632365,-0.09782487090876212
-0.1257309875265465,-0.16022019108178495,0.12831501187927843,0.031405202081180895,-0.3076098532442595,-0.1156236541195513,-0.09860263048312506
-0.13077404361964423,-0.16922589886885256,0.12020314331219761,0.03018637147000958,-0.3076098532442595,-0.11385590855826712,-0.09825695956118598
-0.13870476744824178,-0.18021591515137575,0.1161472090286572,0.02839875324029165,-0.30732273635872054,-0.11444515707869518,-0.1000717319013662
-0.14267012936254056,-0.19120593143389897,0.11325011311184262,0.033761607929445436,-0.30732273635872054,-0.11097513801395213,-0.10024456736233574
-0.14481170112810263,-0.20250122594649225,0.10450615089018407,0.05159716253958569,-0.30732273635872054,-0.11038588949352407,-0.09963964324894234
-0.14908102806719084,-0.21532291160943598,0.11261801945726489,0.06585748069029007,-0.3071432883052587,-0.10924012848158061,-0.10102232693669869
-0.15152656485754235,-0.22855163491247316,0.12194140086228636,0.0700421324553116,-0.3071432883052587,-0.10750511894920908,-0.1016272510500921
-0.1489290455547961,-0.24030484677017158,0.1271561735125526,0.07239853830357613,-0.30699972986248925,-0.10806163144072448,-0.10084949147572915
-0.1458755787148657,-0.2526686150880102,0.13295036534618176,0.07239853830357613,-0.3068561714197198,-0.1051808608964095,-0.10205933970251596
-0.14145426926338275,-0.2638112704855684,0.13237094616281883,0.06528869307174347,-0.30732273635872054,-0.09820808673801074,-0.10257784608542458
-0.1339656763799335,-0.27022211331704027,0.13121210779609302,0.04980954430986776,-0.3076098532442595,-0.09300305814089617,-0.10205933970251596
-0.12313346822380027,-0.27556448234326686,0.12310023922901218,0.02067949270287332,-0.3076098532442595,-0.09182456110004004,-0.10257784608542458
-0.11032548740653558,-0.28136476871459853,0.11203860027390199,0.0004875322444685262,-0.3077534116870289,-0.08720878102335354,-0.10344202339027231
-0.09704774246005084,-0.28350171632508914,0.10276789334009533,-0.01677923474712511,-0.3079328597404908,-0.08197101639732629,-0.10283709927687891
-0.0767511687593369,-0.2812121295995635,0.09291776722292576,-0.030430137592243844,-0.3080764181832602,-0.07964675834452671,-0.10344202339027231
-0.0530971631939031,-0.2758697605733369,0.09117950967283701,-0.0340053740516797,-0.3079328597404908,-0.07732250029172712,-0.10404694750366572
-0.024869865664591616,-0.2668640527862693,0.0906000904894741,-0.040546431664965764,-0.30836353506879915,-0.0755874907593556,-0.103182770198818
0.004117344426693501,-0.25297389331808023,0.09117950967283701,-0.0458686586670805,-0.3086865415650304,-0.07211747169461255,-0.10404694750366572
0.038755540660655265,-0.23404664305373477,0.08770299457265952,-0.052409716280366565,-0.3086865415650304,-0.07270672021504061,-0.10456545388657434
0.0750793611229949,-0.20875942966292907,0.08364706028911911,-0.05301913158595222,-0.30836353506879915,-0.073263232706556,-0.103182770198818
0.11459481434562381,-0.17685785462060477,0.07727344927212704,-0.04351225281881596,-0.30836353506879915,-0.073263232706556,-0.10456545388657434
0.1545662151054369,-0.14083502347233431,0.07321751498858663,-0.022101461749239854,-0.30836353506879915,-0.07152822317418449,-0.10525679573045253
0.19882075939637409,-0.09641704099713638,0.0720586766218608,-0.00012188306111713155,-0.30836353506879915,-0.07617673927978366,-0.10439261842560481
0.24231539112533762,-0.04655493008568854,0.06916158070504622,0.01592605331930519,-0.3082199766260297,-0.07732250029172712,-0.10465187161705912
0.28473232867550224,0.010684738052453109,0.05925878011666184,0.021288908008458975,-0.30836353506879915,-0.07732250029172712,-0.10465187161705912
0.32623737115129847,0.07703187338768575,0.05752052256657309,0.015357265700758575,-0.3082199766260297,-0.07850099733258324,-0.1049975425389982
0.36865430870146304,0.14846697922408653,0.05694110338321017,0.012960232165454987,-0.3080764181832602,-0.07964675834452671,-0.10603455530481548
0.4092474561028909,0.22478653674160873,0.05925878011666184,0.009384995706019129,-0.30836353506879915,-0.0755874907593556,-0.10560246665239162
0.44494952992361575,0.3077713356156612,0.0615764568501135,0.010603826317190444,-0.30836353506879915,-0.06399893652427033,-0.10577530211336116
0.47851003197877856,0.3959458644009052,0.062155876033476415,0.011172613935737059,-0.30836353506879915,-0.05241038228918506,-0.10663947941820888
0.506751146100126,0.48722405519186174,0.06684390397159455,0.012350816859869329,-0.3086865415650304,-0.04717261766315782,-0.10698515034014797
0.5329888543762701,0.5805883138882972,0.06916158070504622,0.005809759246583271,-0.3082199766260297,-0.04370259859841478,-0.10586171984384593
0.5523735330026156,0.67629303901527,0.07321751498858663,-0.0060535253688175335,-0.30897365845056934,-0.03672982444001602,-0.10724440353160229
0.5691468757341791,0.7739311929326869,0.07089983825513496,-0.018526225289803994,-0.30958378183233953,-0.03384905389570103,-0.10776290991451092
0.5802968655071377,0.8727904597703839,0.05983819930002476,-0.029820722286658184,-0.3109834766493418,-0.030346298802045316,-0.10663947941820888
0.5871637117489722,0.9710900498529526,0.06331471440020225,-0.04412166812440162,-0.3129574052374218,-0.017022735034588527,-0.10715798580111752
0.5889875018977089,1.067354451735054,0.06447355276692808,-0.057772570969520355,-0.3161515805890423,-0.00134217718541948,-0.10879992268032819
0.5831845332426375,1.1605660713164543,0.055782265016484346,-0.0696764832719602,-0.31981232087966355,0.006776357984922741,-0.10715798580111752
0.5757097569512241,1.2486388406916749,0.03839968951559687,-0.07800515911496418,-0.3251598728728259,0.005008612423638548,-0.10741723899257183
0.5641176362331173,1.3320815569108326,0.025652467481612724,-0.07800515911496418,-0.33172767162952865,-0.0019314257058475445,-0.10975051771566068
0.5477864244467021,1.4074852797381445,0.011693732609687936,-0.07085468619609248,-0.33980283403531075,-0.007725702823390178,-0.10784932764499569
0.5262739906468303,1.4752061671086925,0.0030024448592441996,-0.0696764832719602,-0.3491341328153256,-0.018168496046531986,-0.10784932764499569
0.5032417317230113,1.5322931961317992,-0.0010534894242962105,-0.06671066211811,-0.359793347190958,-0.025730518725358812,-0.11096036594244749
0.4766862418300418,1.5773217350671371,-0.0004740702409332947,-0.057772570969520355,-0.3717086979408232,-0.02802204074924573,-0.10862708721935864
0.4493708393750987,1.606577565448854,-0.008585938808014115,-0.05123151335623429,-0.3846648474007669,-0.030935547322473382,-0.1084542517583891
0.41884998756783043,1.6215361987222885,-0.0010534894242962105,-0.042902837513230305,-0.39902069167771287,-0.03208130833441684,-0.11078753048147795
0.3909266550633084,1.6226046725275338,0.009955475059599189,-0.030430137592243844,-0.4142737762219679,-0.030935547322473382,-0.10879992268032819
0.36102754989765495,1.6077986783691345,0.023914209931523978,-0.025676698208675713,-0.43028054259076265,-0.02687627973730227,-0.1090591758717825
0.33081066311517615,1.5777796524122423,0.03318491686533063,-0.02628611351426137,-0.44678976350925054,-0.0216712511401877,-0.11104678367293226
0.2999858462831184,1.532140557016764,0.03724085114887104,-0.02925193466811157,-0.46311953637427655,-0.012963467449417418,-0.10957768225469114
0.27297440885296476,1.4730692194982018,0.03782027033223395,-0.032827171127547426,-0.47926986118584075,-0.0036664352382190673,-0.10983693544614545
0.2462807530396364,1.4015323542517777,0.03434375523205646,-0.03636177989994424,-0.4949895106690966,0.003862851411695089,-0.1121702141692343
0.22094112324582474,1.3171229236373982,0.026811305848338556,-0.03636177989994424,-0.5093453549460425,0.012570635102465375,-0.1106146950205084
0.19667918763081202,1.2223849129056472,0.01927885646462065,-0.035183576975811974,-0.5215478225814466,0.020689170272807596,-0.1106146950205084
0.1742548587565719,1.1186411943868289,0.017487924443317093,-0.0310395528978295,-0.5305561148652301,0.027629208402293687,-0.11294797374359725
0.15167854736993708,1.0078251968713865,0.025073048298249807,-0.03221775582196177,-0.536047225301162,0.02939695396357788,-0.11104678367293226
0.12878445436647692,0.8914124318046593,0.025652467481612724,-0.040546431664965764,-0.5361907837439315,0.02939695396357788,-0.11139245459487135
0.11017350489414085,0.7733206364725467,0.023914209931523978,-0.03936822874083349,-0.5304125564224607,0.0316884759874648,-0.11363931558747543
0.09185270385455836,0.6543130064502237,0.019858275647983568,-0.029820722286658184,-0.5178870822908254,0.034012734040264385,-0.11199737870826476
0.0726338243326434,0.5332701882274334,0.020437694831346484,-0.023889079978957783,-0.4974300041961774,0.03227772450789286,-0.11242946736068862
0.055086752447070425,0.415941588470496,0.012852570976413768,-0.022101461749239854,-0.46843119875674655,0.027629208402293687,-0.11519483473620133
0.040593147401427866,0.303650079509715,0.00705837914278461,-0.02153267413069324,-0.42967041920899246,0.028807705443149815,-0.11355289785699066
0.024869865664591616,0.19700621780523064,0.004740702409332947,-0.023279664673372124,-0.3820807954309166,0.034012734040264385,-0.11320722693505157
0.009312383032185971,0.09840134949259197,-0.0027917469743849576,-0.01677923474712511,-0.32469330793382517,0.041574756719091215,-0.11554050565814042
-0.00502923950106186,0.008547790441962487,-0.019594903291909514,-0.016169819441539453,-0.25725672944287153,0.044455527263406194,-0.11398498650941452
-0.014341622533247831,-0.07158774495143583,-0.01843606492518368,-0.017348022365671723,-0.18066830022536487,0.04504477578383426,-0.11441707516183838
-0.026859454917758943,-0.14114030170240438,-0.009165357991377032,-0.01499161651740718,-0.09460501378507385,0.047925546328149236,-0.11675035388492723
-0.037387698049102726,-0.19853260895558109,0.0030024448592441996,-0.01023817713383905,0.00014355844276945956,0.05198481391332035,-0.11433065743135361
-0.04683824700164754,-0.2438155464159776,0.017487924443317093,-0.0019095012908350608,0.10300318268708723,0.055487569006976066,-0.11476274608377747
-0.05340112821869255,-0.27861726464396774,0.03376433604869355,0.003453353398318727,0.21300483945918564,0.06301685565689022,-0.11640468296298814
-0.0625615287384838,-0.30212368835936454,0.04651155808267769,0.007028589857754586,0.32867705472067765,0.07345964888003204,-0.11441707516183838
-0.06698283818996675,-0.3160138478275536,0.04593213889931477,0.003453353398318727,0.4478305622193291,0.0786646774771466,-0.11536767019717087
-0.07125216512905498,-0.3219667733139203,0.04245562379913728,-0.00369711952055299,0.5694604528557538,0.0850482031151173,-0.11675035388492723
-0.07278580684503813,-0.31967718658839467,0.039558527882322704,-0.007231728292949805,0.6913774603777172,0.09493448384674372,-0.1156269233886252
-0.07553530866017909,-0.3108241179163621,0.036082012782145206,-0.01677923474712511,0.8116076561971396,0.10013951244385828,-0.11597259431056428
-0.07919670554968841,-0.29418645437754226,0.03782027033223395,-0.031608340516376114,0.9286436766649415,0.10652303808182897,-0.11700960707638154
-0.07889274052489896,-0.2740380911929164,0.03318491686533063,-0.04529987104853389,1.0399014698112727,0.11231731519937162,-0.1156269233886252
-0.07874075801250423,-0.2523633368579401,0.024493629114886895,-0.044690455742948235,1.1425816460021287,0.11346307621131507,-0.11614542977153382
-0.07705513378412636,-0.23053594340792874,0.014011409343139599,-0.0280737317439793,1.2361099714664316,0.11346307621131507,-0.11778736665074449
-0.07720711629652108,-0.20662248205243844,0.007637798326147526,-0.015560404135953793,1.3169692643563295,0.11405232473174313,-0.11640468296298814
-0.07583927368496854,-0.18265814099193647,-0.0022123277910220417,-0.009019346522667735,1.383508602579974,0.10711228660225704,-0.11614542977153382
-0.07430563196898539,-0.1608307475419251,-0.0033711661577478735,-0.005484737750270919,1.4347948562593635,0.10072876096428635,-0.11821945530316835
-0.07141796423348559,-0.14083502347233431,-0.003950585341110789,-0.00369711952055299,1.468961765638495,0.09899375143191483,-0.11640468296298814
-0.07110018261666025,-0.1219077732079888,-0.005688842891199536,-0.002478288909381675,1.4859016618852912,0.10072876096428635,-0.11700960707638154
-0.06988432251750244,-0.10496483143909886,-0.015538969008369104,0.003453353398318727,1.4848249735645203,0.09955026392343022,-0.11873796168607699
-0.06698283818996675,-0.09137995020097991,-0.005688842891199536,0.014138435089587259,1.465911148729644,0.09549099633825911,-0.11761453118977495
-0.06683085567757202,-0.0810004903785969,0.0035818640426071155,0.019501289778741045,1.4303445445335103,0.09955026392343022,-0.11700960707638154
-0.06683085567757202,-0.0735720534468914,0.014011409343139599,0.013569647471040645,1.378484057083043,0.10534454104097285,-0.11934288579947039
-0.06698283818996675,-0.06884024088080502,0.0285495633984273,0.0075973774763012,1.3104373552103192,0.10999305714657202,-0.1183922907641379
-0.06377738883764161,-0.06487162388989387,0.039558527882322704,0.005240971628036656,1.2293986142669593,0.11290656371979968,-0.11796020211171404
-0.06485508301644058,-0.06212411981926307,0.04593213889931477,0.010603826317190444,1.1354037238636556,0.11290656371979968,-0.11934288579947039
-0.06531103055362476,-0.0642610674297537,0.047670396449403525,0.02246711093259125,1.0305701710312578,0.11523082177259926,-0.11882437941656177
-0.0672868032147562,-0.06716121061541953,0.04419388134922603,0.037336844388881296,0.918271579174848,0.1215816113816573,-0.11917005033850085
-0.06637490814038784,-0.07051927114619051,0.035502593598782294,0.042699699078035086,0.8000153119435057,0.12449511795488494,-0.11960213899092471
-0.0691244099555288,-0.07402997079199654,0.02623188666497564,0.03672742908329564,0.6794621096278521,0.12855438554005605,-0.11977497445189425
-0.06897242744313407,-0.07855826453803619,0.025652467481612724,0.023076526238176905,0.5581552254876587,0.13493791117802675,-0.11934288579947039
-0.06988432251750244,-0.08496910736950805,0.023914209931523978,0.010603826317190444,0.43853515305000657,0.1395864272836259,-0.12072556948722675
-0.0691244099555288,-0.09076939374083974,0.017487924443317093,0.014138435089587259,0.32225281440674436,0.14596995292159662,-0.11977497445189425
-0.07003630502989716,-0.09672231922720648,0.002423025675881284,0.029617583851462966,0.2114974758101063,0.14770496245396814,-0.11960213899092471
-0.07293778935743285,-0.10175941002336293,-0.0033711661577478735,0.04924075669132114,0.1083507346802496,0.14770496245396814,-0.12133049360062015
-0.07278580684503813,-0.10618594435937923,-0.005109423707836621,0.06703568361442235,0.014176396223484131,0.14596995292159662,-0.12037989856528766
-0.07278580684503813,-0.10969664400518525,0.0012641873091554525,0.06825451422559367,-0.0712408772243443,0.14538070440116857,-0.12037989856528766
-0.07400166694419594,-0.11305470453595623,0.004740702409332947,0.06585748069029007,-0.14571181941100145,0.14826147494548353,-0.12158974679207447
-0.07583927368496854,-0.11610748683665711,0.006478959959421694,0.07418615653329406,-0.20966710566479568,0.14538070440116857,-0.12081198721771153
-0.07445761448138012,-0.11931290825239305,0.006478959959421694,0.07715197768714427,-0.26185059961149426,0.14132143681599746,-0.12020706310431811
-0.07568729117257382,-0.12206041232302384,0.023914209931523978,0.06585748069029007,-0.3031954311290986,0.13608367218997022,-0.12271317728837651
-0.07614323870975799,-0.1235868034733743,0.04071736624904854,0.04209028377244943,-0.33370160021760875,0.13493791117802675,-0.12115765813965061
-0.07858877550010951,-0.12511319462372472,0.055202845833121426,0.009994411011604786,-0.35401511986948725,0.13608367218997022,-0.12115765813965061
-0.07583927368496854,-0.1235868034733743,0.06273529521683933,-0.018526225289803994,-0.3654639056803517,0.13726216923082635,-0.12331810140176991
-0.07659918624694217,-0.12175513409295376,0.06099703766675058,-0.03936822874083349,-0.3688016394747416,0.13667292071039827,-0.12141691133110492
-0.07735909880891581,-0.1219077732079888,0.06099703766675058,-0.05301913158595222,-0.3654639056803517,0.13667292071039827,-0.12158974679207447
-0.07843679298771478,-0.1219077732079888,0.054623426649758514,-0.05895077389365262,-0.35659917183933754,0.1424671978279409,-0.12340451913225468
-0.07796702885849471,-0.12038138205763836,0.04245562379913728,-0.05956018919923828,-0.3433200158831625,0.15176423003913925,-0.1221082531749831
-0.07858877550010951,-0.11870235179225287,0.0285495633984273,-0.05005331043210202,-0.3276003663999067,0.1552342491038823,-0.1221082531749831
-0.07811901137088943,-0.11793915621707765,0.01927885646462065,-0.03457416167022632,-0.3099067883285708,0.15408848809193884,-0.12392302551516332
-0.07781504634609998,-0.11702332152686738,0.01927885646462065,-0.026854901132807984,-0.2912800803792335,0.15464500058345423,-0.12219467090546787
-0.07720711629652108,-0.11519165214644685,0.020437694831346484,-0.020923258825107583,-0.27311993736889684,0.15814775567710995,-0.12279959501886129
-0.07659918624694217,-0.11274942630588614,0.01632908607659126,-0.01141638005797132,-0.25650304761833187,0.16335278427422453,-0.12452794962855672
-0.07919670554968841,-0.11152831338560577,0.00705837914278461,-0.0006906706796637454,-0.2415370799596157,0.16276353575379646,-0.12297243047983082
-0.07811901137088943,-0.11045983958036047,-0.0010534894242962105,0.005240971628036656,-0.22843737205690254,0.16047201372990955,-0.12409586097613286
-0.07766306383370526,-0.10984928312022028,-0.011483034724828693,0.010603826317190444,-0.21820883300957852,0.15696925863625383,-0.12530570920291967
-0.07629522122215272,-0.10969664400518525,-0.012641873091554526,0.005240971628036656,-0.2099542225503346,0.15582349762431036,-0.12375019005419377
-0.07720711629652108,-0.10725441816462454,-0.009744777174739946,-0.009628761828253393,-0.20478611861063406,0.15002922050676773,-0.12452794962855672
-0.07720711629652108,-0.1057280270142741,-0.012641873091554526,-0.020313843519521924,-0.20202261858732196,0.14014293977514133,-0.12573779785534353
-0.07751108132131053,-0.10633858347441427,-0.020753741658635347,-0.023279664673372124,-0.20141249520555177,0.13379215016608328,-0.12478720282001105
-0.07553530866017909,-0.105422748784204,-0.010903615541465779,-0.01499161651740718,-0.20263274196909217,0.125084366475313,-0.12530570920291967
-0.07705513378412636,-0.10404899674888861,-0.0027917469743849576,-0.00012188306111713155,-0.20539624199240428,0.11637658278454273,-0.12694764608213036
-0.07751108132131053,-0.10359107940378347,0.01111431342632502,-0.002478288909381675,-0.20981066410756516,0.1146415732521712,-0.12513287374195012
-0.07583927368496854,-0.10313316205867834,0.022755371564798146,-0.01795743767125738,-0.21530177454349697,0.11290656371979968,-0.12591063331631308
-0.07690315127173163,-0.10328580117371339,0.025073048298249807,-0.0280737317439793,-0.221403008361199,0.11172806667894354,-0.12755257019552374
-0.07843679298771478,-0.10374371851881851,0.029708401765153134,-0.0310395528978295,-0.22750424217890103,0.11172806667894354,-0.12599705104679784
-0.07858877550010951,-0.10343844028874842,0.035502593598782294,-0.022101461749239854,-0.23331835911106416,0.10940380862614396,-0.1261698865077674
-0.07614323870975799,-0.10236996648350312,0.039558527882322704,-0.016169819441539453,-0.23924014487530434,0.10593378956140091,-0.12815749430891715
-0.07766306383370526,-0.10206468825343303,0.036661431965508126,-0.012594582982103593,-0.24444413842569726,0.09955026392343022,-0.12634272196873694
-0.07735909880891581,-0.1013014926782578,0.03434375523205646,-0.00845055890412112,-0.24946868392262836,0.09549099633825911,-0.12599705104679784
-0.07796702885849471,-0.10145413179329285,0.035502593598782294,-0.01320399828768925,-0.2533088722667114,0.0908752162615726,-0.1279846588479476
-0.0767511687593369,-0.10221732736846807,0.035502593598782294,-0.017348022365671723,-0.25650304761833187,0.08855095820877301,-0.12694764608213036
-0.07950067057447786,-0.1029805229436433,0.03318491686533063,-0.023889079978957783,-0.2589435411454127,0.0891074707002884,-0.1267748106211608
-0.07796702885849471,-0.10313316205867834,0.023914209931523978,-0.032827171127547426,-0.26030734635172253,0.0850482031151173,-0.12755257019552374
-0.07811901137088943,-0.10328580117371339,0.012852570976413768,-0.030430137592243844,-0.261240476229724,0.07519465841240355,-0.12729331700406943
-0.07644720373454744,-0.10191204913839798,0.0012641873091554525,-0.015560404135953793,-0.26185059961149426,0.061871094644946764,-0.1267748106211608
-0.07796702885849471,-0.09992774064294241,0.0035818640426071155,0.0028439380927330693,-0.2613840346724935,0.05083905290137689,-0.12712048154309988
-0.07735909880891581,-0.10114885356322276,0.012273151793050852,0.018323086854608775,-0.26063035284795383,0.04272051773103467,-0.12789824111746284
-0.07766306383370526,-0.10145413179329285,0.014011409343139599,0.03672742908329564,-0.25941010608441345,0.03633699209306397,-0.12755257019552374
-0.07614323870975799,-0.10038565798804754,0.0035818640426071155,0.05098774723400003,-0.2577232943818723,0.028807705443149815,-0.12850316523085625
-0.07796702885849471,-0.10053829710308258,0.007637798326147526,0.053384780769303614,-0.2560364826793311,0.01895416074043607,-0.1283303297698867
-0.07568729117257382,-0.09992774064294241,0.013431990159776683,0.04684372315601756,-0.25406255409125106,0.011392138061609245,-0.12858958296134101
-0.07583927368496854,-0.09992774064294241,0.023914209931523978,0.03437102323503109,-0.2523757423887099,0.007332870476438135,-0.1292809248052192
-0.0767511687593369,-0.09977510152790736,0.03028782094851605,0.026042347392027106,-0.2502582553578604,0.0032736028912670246,-0.12910808934424964
-0.07811901137088943,-0.098553988607627,0.030867240131878967,0.02246711093259125,-0.24857144365531922,-0.0059906932910186545,-0.12876241842231057
-0.07659918624694217,-0.0974855148023817,0.034923174415419374,0.02067949270287332,-0.24720763844900936,-0.0158442379937324,-0.13031793757103646
-0.07781504634609998,-0.09702759745727656,0.032026078498604796,0.024864144467894835,-0.24566438518923767,-0.023962773164074618,-0.1301451021100669
-0.07659918624694217,-0.0971802365723116,0.029708401765153134,0.03437102323503109,-0.24415702154015834,-0.027465528257730337,-0.1301451021100669
-0.07644720373454744,-0.09763815391741673,0.029128982581790218,0.05159716253958569,-0.24322389166215685,-0.029789786310529923,-0.13152778579782326
-0.0750793611229949,-0.0971802365723116,0.029708401765153134,0.08312424768188371,-0.24214720334138592,-0.03208130833441684,-0.13075002622346032
-0.07492737861060018,-0.0947380107317509,0.032605497681967716,0.11700773867244628,-0.24171652801307753,-0.03499481490764449,-0.13075002622346032
-0.07735909880891581,-0.09489064984678594,0.03028782094851605,0.1371996991308511,-0.24078339813507604,-0.039054082492815605,-0.13316972267703395
-0.07614323870975799,-0.0947380107317509,0.021596533198072313,0.15739165958925586,-0.2403168331960753,-0.046026856651214365,-0.1317006212587928
-0.07553530866017909,-0.09412745427161072,0.01517024770986543,0.17701483242911403,-0.24002971631053638,-0.05414539182155659,-0.13126853260636895
-0.07460959699377484,-0.09275370223629532,0.013431990159776683,0.19306276880953638,-0.2397067098143051,-0.06573394605664186,-0.13368822905994257
-0.07538332614778435,-0.09199050666112009,0.005320121592695863,0.21211715403084794,-0.23924014487530434,-0.07444172974741214,-0.13213270991121667
-0.0750793611229949,-0.09214314577615514,-0.0016329086076591261,0.21032953580113,-0.23880946954699597,-0.08023600686495477,-0.13213270991121667
-0.0750793611229949,-0.09244842400622523,-0.005109423707836621,0.1948503870392543,-0.23880946954699597,-0.08776529351486893,-0.13386106452091212
-0.07369770191940649,-0.09153258931601496,0.00705837914278461,0.17348022365671723,-0.23801989811176394,-0.08661953250292546,-0.13152778579782326
-0.07415364945659067,-0.09107467197090983,0.014590828526502515,0.14435017204972278,-0.23773278122622504,-0.0860302839824974,-0.13126853260636895
-0.0750793611229949,-0.09000619816566452,0.032026078498604796,0.1259052021339969,-0.23740977472999375,-0.08776529351486893,-0.13273763402461008
-0.07354571940701175,-0.08878508524538416,0.04245562379913728,0.1092478504479889,-0.23665609290545409,-0.088354542035297,-0.13075002622346032
-0.07415364945659067,-0.08939564170552435,0.05230574991630685,0.10270679283470285,-0.23636897601991516,-0.09067880008809658,-0.130490773032006
-0.07369770191940649,-0.08985355905062947,0.058099941749936004,0.10510382637000644,-0.2360459695236839,-0.09473806767326769,-0.1317006212587928
-0.07523134363538964,-0.09015883728069957,0.06099703766675058,0.10449441106442078,-0.23514872925637476,-0.10400236385555336,-0.12936734253570398
-0.07278580684503813,-0.09015883728069957,0.06916158070504622,0.10510382637000644,-0.23453860587460457,-0.1115643865343802,-0.1292809248052192
-0.07308977186982758,-0.08878508524538416,0.07321751498858663,0.1057132416755921,-0.23374903443937253,-0.1161801666110667,-0.1301451021100669
-0.07415364945659067,-0.0864954985198585,0.06916158070504622,0.1057132416755921,-0.23270823572929394,-0.12141793123709393,-0.1279846588479476
-0.07568729117257382,-0.08680077674992859,0.05925878011666184,0.11343250221301042,-0.2319186642940619,-0.1225636922490374,-0.12858958296134101
-0.07460959699377484,-0.08695341586496363,0.054623426649758514,0.1259052021339969,-0.2310214240267528,-0.11968292170472242,-0.1292809248052192
-0.07553530866017909,-0.08588494205971832,0.062155876033476415,0.13541208090113316,-0.2298011772632124,-0.11503440559912324,-0.12789824111746284
-0.07476157950616957,-0.0851217464845431,0.06684390397159455,0.14670657789798733,-0.22872448894244143,-0.1156236541195513,-0.1279846588479476
-0.07445761448138012,-0.08435855090936788,0.065052971950291,0.15442583843540567,-0.22782724867513232,-0.1161801666110667,-0.12936734253570398
-0.07354571940701175,-0.08420591179433283,0.06099703766675058,0.15739165958925586,-0.22628399541536062,-0.11503440559912324,-0.1277254056564933
-0.07308977186982758,-0.0837479944492277,0.0615764568501135,0.1722613930455459,-0.2253867551480515,-0.1179479121723509,-0.12815749430891715
-0.0750793611229949,-0.08222160329887725,0.06099703766675058,0.19663800526897224,-0.2239870603310493,-0.12547719882226505,-0.13057719076249077
-0.07430563196898539,-0.0806952121485268,0.06389413358356516,0.21089832341967663,-0.22308982006374015,-0.12953646640743616,-0.12910808934424964
-0.0732417543822223,-0.07916882099817636,0.06684390397159455,0.21687059341441606,-0.2217260148574303,-0.13241723695175114,-0.1292809248052192
-0.07248184182024868,-0.07855826453803619,0.06568506560486873,0.22934329333540251,-0.22064932653665933,-0.13647650453692226,-0.13187345671976236
-0.07354571940701175,-0.07779506896286097,0.0615764568501135,0.23885017210253878,-0.21910607327688766,-0.1393900111101499,-0.13031793757103646
-0.0707962175918708,-0.07748979073279087,0.0795911260055787,0.24539122971582483,-0.21820883300957852,-0.143449278695321,-0.13057719076249077
-0.07172192925827504,-0.07672659515761565,0.10624440844027282,0.25550752378854674,-0.21684502780326867,-0.1486543072924356,-0.13316972267703395
-0.07125216512905498,-0.07448788813710167,0.13295036534618176,0.25550752378854674,-0.21544533298626645,-0.15097856534523518,-0.13247838083315577
-0.0720258942830645,-0.07158774495143583,0.1526506175805209,0.2460006450214105,-0.21408152777995657,-0.14924355581286364,-0.13256479856364053
-0.0691244099555288,-0.072198301411576,0.1631328373522682,0.233487317413385,-0.2127177225736467,-0.14691929776006407,-0.13394748225139688
-0.0691244099555288,-0.07128246672136573,0.171244705919349,0.2216240327979842,-0.21103091087110556,-0.14691929776006407,-0.1333425581380035
-0.06973234000510771,-0.06990871468605034,0.17703889775297815,0.2234116510277021,-0.20966710566479568,-0.14636278526854868,-0.13308330494654916
-0.07049225256708135,-0.06761912796052467,0.17877715530306693,0.21804879633854835,-0.20812385240502398,-0.14230351768337757,-0.13533016593915326
-0.06866846241834462,-0.06639801504024431,0.17645947856961525,0.21508297518469813,-0.2062934822597134,-0.143449278695321,-0.13368822905994257
-0.07049225256708135,-0.06594009769513919,0.17356238265280066,0.21687059341441606,-0.20460667055717224,-0.14053577212209337,-0.13316972267703395
-0.06927639246792353,-0.06517690211996396,0.17356238265280066,0.2091107051899587,-0.20277630041186162,-0.13418498251303534,-0.13550300140012278
-0.06882044493073936,-0.06471898477485882,0.17356238265280066,0.1990350388042758,-0.20080237182378155,-0.13012571492786423,-0.13351539359897302
-0.06713482070236147,-0.06349787185457847,0.16660935245244568,0.1942815994207077,-0.19929500817470225,-0.12429870178140892,-0.13291046948557964
-0.06759076823954566,-0.06166620247415794,0.15902422859751297,0.19545980234483995,-0.19714163153316033,-0.12547719882226505,-0.13507091274769892
-0.06806053236876572,-0.06029245043884254,0.15844480941415004,0.20256964757667262,-0.1954548198306192,-0.13300648547217922,-0.13308330494654916
-0.06774275075194038,-0.05891869840352714,0.1561271326806984,0.21743938103296268,-0.19333733279976967,-0.14053577212209337,-0.13291046948557964
-0.06561499557841421,-0.05815550282835192,0.15902422859751297,0.2382407567969531,-0.19132751460099723,-0.143449278695321,-0.13412031771236643
-0.06607094311559839,-0.05830814194338696,0.16660935245244568,0.2548981084829611,-0.18967659250914845,-0.1480977948009202,-0.13247838083315577
-0.06622292562799312,-0.05815550282835192,0.1706652867359861,0.2614391660962472,-0.18784622236383783,-0.1521570623860913,-0.13187345671976236
-0.06408135386243106,-0.05754494636821174,0.16197399898554235,0.2691584266336655,-0.18601585221852723,-0.15680557849169047,-0.13368822905994257
-0.06485508301644058,-0.05510272052765103,0.16834761000253443,0.2840281600899555,-0.18447259895875553,-0.16142135856837697,-0.13195987445024712
-0.06347342381285216,-0.052813133802125364,0.1776183169363411,0.2923568359329595,-0.1827857872562144,-0.16374561662117657,-0.1317006212587928
-0.06438531888722052,-0.05204993822695014,0.19615973080395438,0.2834187447843699,-0.18127842360713506,-0.16142135856837697,-0.13394748225139688
-0.061193686126931254,-0.05159202088184501,0.21359498077605668,0.26976784193925113,-0.1795916119045939,-0.15680557849169047,-0.13256479856364053
-0.06011599194813229,-0.04991299061645952,0.23155697546030707,0.2578639296368113,-0.1783713651410535,-0.1521570623860913,-0.13213270991121667
-0.060571939485316466,-0.04884451681121421,0.24488361667765413,0.24421302679169257,-0.17729467682028255,-0.1486543072924356,-0.13507091274769892
-0.06149765115172071,-0.04808132123603899,0.2553658364494014,0.23291852979483837,-0.17564375472843377,-0.14459503970726448,-0.1333425581380035
-0.05950806189855338,-0.04655493008568854,0.2669542201166597,0.22040520218681287,-0.1747106248504323,-0.13765500157777838,-0.13351539359897302
-0.0572145076205966,-0.0436547869000227,0.27448666950037764,0.20972012049554434,-0.17302381314789114,-0.13418498251303534,-0.13576225459157712
-0.056454595058622964,-0.04136520017449703,0.2872338915343618,0.20256964757667262,-0.17137289105604234,-0.12953646640743616,-0.13429315317333598
-0.054782787422280974,-0.03999144813918164,0.30408972232310116,0.18713112650183597,-0.17015264429250193,-0.1289472178870081,-0.13533016593915326
-0.052793198169113646,-0.03831241787379615,0.31973404027389984,0.16393271720254193,-0.16893239752896153,-0.13359573399260727,-0.1379226978536964
-0.05066544299558747,-0.03739658318358588,0.3347989390413357,0.14374075674413714,-0.16767626115472878,-0.14053577212209337,-0.13593509005254664
-0.052489233144324195,-0.036175470263305524,0.35223418901343795,0.12293938098014669,-0.16645601439118837,-0.14286003017489296,-0.13654001416594005
-0.04943576630439377,-0.03358060530770977,0.36961676451432546,0.1057132416755921,-0.16480509229933957,-0.14112502064252141,-0.13913254608048323
-0.04715602861847288,-0.029764627431833657,0.37714921389804335,0.10091917460498492,-0.1632618390395679,-0.13824425009820646,-0.13774986239272688
-0.04455850931572664,-0.029764627431833657,0.3875787591985758,0.1003503869864383,-0.16218515071879694,-0.13647650453692226,-0.1382683687756355
-0.04440652680333192,-0.027932958051413125,0.4044345899873152,0.09202171114343431,-0.16035478057348632,-0.13765500157777838,-0.141120153881633
-0.0413530599634015,-0.026559206016097726,0.433405549155461,0.0944187446787379,-0.15838085198540627,-0.14112502064252141,-0.14025597657678526
-0.04013719986424369,-0.023811701945466928,0.466485117078362,0.09795335345113472,-0.15687348833632694,-0.14403852721574908,-0.14086090069017868
-0.037387698049102726,-0.021980032565046395,0.5111530686685213,0.09380932937315224,-0.1551866766337858,-0.14518428822769253,-0.14146582480357206
-0.037387698049102726,-0.020606280529730996,0.5569798586254064,0.08251483237629806,-0.15274618310670499,-0.14459503970726448,-0.14233000210841978
-0.03403026618438286,-0.01984308495455577,0.6086008404159208,0.06585748069029007,-0.15059280646516307,-0.143449278695321,-0.14224358437793502
-0.03204067693121553,-0.018621972034275416,0.6694925291402417,0.04745313846160321,-0.1483317609915441,-0.14459503970726448,-0.14233000210841978
-0.0312807643692419,-0.01694294176888993,0.7373899225361324,0.04209028377244943,-0.14603482590723274,-0.143449278695321,-0.14388552125714568
-0.030976799344452445,-0.015263911503504441,0.7982816112604535,0.029617583851462966,-0.14359433238015193,-0.14286003017489296,-0.14362626806569137
-0.02792333250452203,-0.013584881238118952,0.8452672395840645,0.016535468624890845,-0.14115383885307112,-0.14459503970726448,-0.1432805971437523
-0.02701143743015367,-0.011753211857698419,0.8905146103575867,0.014138435089587259,-0.1385338972725285,-0.1457735367481206,-0.1450953694839325
-0.02502184817698634,-0.010074181592312931,0.9380796578645606,0.018323086854608775,-0.13566272841713928,-0.14459503970726448,-0.14405835671811523
-0.023198058028249622,-0.009616264247207797,0.981588771087994,0.03258340500531317,-0.13243266345482643,-0.1393900111101499,-0.14362626806569137
-0.020296573700713933,-0.00870042955699753,1.0210419500278871,0.03493981085357771,-0.12984861148497617,-0.13241723695175114,-0.1448361162924782
-0.018762931984730787,-0.007174038406647087,1.0604951289677802,0.026042347392027106,-0.12679799457612514,-0.12662295983420851,-0.14371268579617616
-0.019384678626345575,-0.006410842831471865,1.0987367950697327,0.011172613935737059,-0.12313725428550394,-0.12721220835463656,-0.14345343260472182
-0.016939141835994067,-0.004121256105946199,1.1329752013593595,-0.007841143598535463,-0.11976363088042163,-0.12662295983420851,-0.14345343260472182
-0.014341622533247831,-0.0009158346902102665,1.170110703565801,-0.019135640595389653,-0.11656945552880116,-0.12662295983420851,-0.1416386602645416
-0.012973779921695293,0.0012211129202803553,1.2072462057722424,-0.016169819441539453,-0.1130522736809494,-0.12721220835463656,-0.13965105246339185
-0.012821797409300565,0.0024422258405607106,1.250755318995676,-0.005484737750270919,-0.10924797494755872,-0.12953646640743616,-0.13913254608048323
-0.009616348056975425,0.004884451681121421,1.3006380432361013,0.0016657351686007978,-0.10605379959593825,-0.13591999204540686,-0.1361079255135162
-0.009312383032185971,0.0068687601765769985,1.3476236715597123,0.007028589857754586,-0.10253661774808649,-0.13824425009820646,-0.13394748225139688
-0.007474776291413369,0.00870042955699753,1.3881830143951166,0.012350816859869329,-0.09887587745746527,-0.14053577212209337,-0.13126853260636895
-0.008082706340992275,0.010226820707347975,1.43169212761855,0.014747850395172917,-0.09489213067061276,-0.14112502064252141,-0.12694764608213036
-0.005347021117887197,0.013279603008048863,1.4624540188079993,0.010603826317190444,-0.09108783193722209,-0.13765500157777838,-0.12418227870661763
-0.003053466839930415,0.01663766353881984,1.4914776524473599,0.005809759246583271,-0.08757065008937033,-0.13241723695175114,-0.11951572126043994
-0.003661396889509321,0.019690445839520728,1.5233457075323202,0.003453353398318727,-0.08347923447044074,-0.13186072446023575,-0.11476274608377747
-0.004877256988667133,0.021980032565046395,1.5604812097387617,-0.002478288909381675,-0.07996205262258897,-0.1289472178870081,-0.11096036594244749
-0.003661396889509321,0.02457489752064215,1.5900842625614853,-0.0030877042149673323,-0.07597830583573648,-0.12547719882226505,-0.1049975425389982
-0.00045594753718417963,0.026559206016097726,1.604569742145558,0.009994411011604786,-0.0721740071023458,-0.11968292170472242,-0.09946680778797279
-0.0006079300495789061,0.030680462122043926,1.612681610712639,0.016535468624890845,-0.06819026031549329,-0.11385590855826712,-0.0960100985685819
-0.0006079300495789061,0.03495435734302517,1.619634640912994,0.02364531385672352,-0.06438596158210261,-0.11038588949352407,-0.08944235105173921
-0.0016718076363419919,0.03709130495351579,1.6370698908850962,0.026651762697612765,-0.06025865635248065,-0.10750511894920908,-0.08330669218732038
0.00015198251239472653,0.040296726369251724,1.6567701431194353,0.01710425624343746,-0.05659791606185943,-0.10691587042878102,-0.07967714750695996
-0.0006079300495789061,0.04411270424512783,1.6706762035201452,0.016535468624890845,-0.05218349394669855,-0.10750511894920908,-0.07250447587672387
0.00030396502478945305,0.047776043005968896,1.6747848122749005,0.012960232165454987,-0.04776907183153767,-0.10924012848158061,-0.06809717162200049
0.00030396502478945305,0.05159202088184501,1.6753642314582635,-0.00369711952055299,-0.044251889983685906,-0.10750511894920908,-0.06533180424648777
0.0012158600991578122,0.05495008141261599,1.6863731959421588,-0.015560404135953793,-0.039514461372293745,-0.10865087996115254,-0.05919614538206895
0.0012158600991578122,0.05800286371331687,1.7008586755262318,-0.01499161651740718,-0.03510003925713286,-0.1115643865343802,-0.05522092977976943
-0.00045594753718417963,0.061818841589192985,1.7165029934770304,-0.02153267413069324,-0.0309727340275109,-0.11503440559912324,-0.05357899290055876
-0.00045594753718417963,0.06639801504024431,1.725826374882052,-0.03579299228139763,-0.026414753469580558,-0.12023943419623781,-0.04865318226292674
0.00045594753718417963,0.07051927114619051,1.7287234707988666,-0.044690455742948235,-0.022108000186496772,-0.1225636922490374,-0.046060650348383574
-0.00030396502478945305,0.07509844459724185,1.732199985899044,-0.05362854689153788,-0.01755001962856643,-0.12488795030183698,-0.046060650348383574
-0.0013678426115525388,0.0796267383432815,1.7455266271163912,-0.040546431664965764,-0.01313559751340555,-0.12429870178140892,-0.042863194320447
-0.00015198251239472653,0.08344271621915761,1.7634886218006414,-0.02271087705482551,-0.007788045520243181,-0.12662295983420851,-0.04182618155462974
-0.0022935542779567823,0.08725869409503371,1.7867180636063729,-0.016169819441539453,-0.0031941753516204754,-0.12953646640743616,-0.04243110566802315
-0.003965361914298774,0.09092203285587479,1.8041006391072605,-0.013772785906235865,0.0018303701453106095,-0.1289472178870081,-0.042085434746084054
-0.004725274476272407,0.0947380107317509,1.8232741466294513,-0.020923258825107583,0.006854915642241694,-0.12606644734269312,-0.042085434746084054
-0.0044213094514829535,0.09962246241287231,1.8441332372305164,-0.03758061051111556,0.012669032574404807,-0.12606644734269312,-0.04424587800820336
-0.0064108987046502825,0.1057280270142741,1.860936393548041,-0.04412166812440162,0.018016584567567176,-0.12488795030183698,-0.045196473043535856
-0.007018828754229189,0.11107039604050065,1.8806893202535948,-0.052409716280366565,0.023328246950037178,-0.12200717975752201,-0.04657915673129221
-0.008386671365781728,0.11458109568630667,1.8974924765711194,-0.05838198627510601,0.029465370378431575,-0.1161801666110667,-0.048221093610502884
-0.009312383032185971,0.11961818648246313,1.9218807567435767,-0.06431362858280641,0.035243597699902325,-0.10691587042878102,-0.05098646098601559
-0.013429727458879472,0.12434999904854951,1.947375200811545,-0.07918336203909646,0.04105771463206544,-0.10344585136403797,-0.05306048651765012
-0.013885674996063652,0.12938708984470598,1.9694458042505507,-0.09104664665449726,0.047158948449767465,-0.10226735432318185,-0.05504809431879988
-0.014949552582826738,0.13411890241079236,1.980454768734446,-0.09462188311393312,0.05311662382470004,-0.09994309627038225,-0.05798629715528214
-0.015405500120010917,0.13824015851673854,1.993781409951793,-0.10059415310867256,0.05982798102417227,-0.09647307720563922,-0.06092449999176439
-0.01845896695994133,0.14312461019785996,2.014693175024073,-0.11010103187580883,0.06697001355195288,-0.09647307720563922,-0.06317136098436847
-0.017851036910362425,0.14846697922408653,2.040767038275404,-0.12436135002651322,0.07325069542311674,-0.09647307720563922,-0.06636881701230504
-0.020448556213108662,0.153504070020243,2.0773231212984826,-0.13801225287163196,0.08042861756158971,-0.09938658377886686,-0.06913418438781775
-0.023502023053039077,0.15793060435625927,2.1057673357544804,-0.14337510756078575,0.08757065008937033,-0.10285660284360991,-0.07155388084139137
-0.025477795714170522,0.16266241692234565,2.1022908206543027,-0.14097807402548215,0.09489213067061276,-0.10806163144072448,-0.07449208367787363
-0.02502184817698634,0.16632575568318672,2.0976027927161844,-0.13029299233421363,0.10192649436631629,-0.11329939606675173,-0.07647969147902339
-0.027163419942548398,0.1704470117891329,2.116196881055013,-0.12257373179679529,0.10939153339032819,-0.1156236541195513,-0.07872655247162746
-0.028531262554100937,0.1773157719657099,2.139373648389529,-0.12139552887266301,0.11656945552880116,-0.12141793123709393,-0.08175117303859449
-0.030216886782478813,0.1806738324964809,2.1655001861120753,-0.11010103187580883,0.12421394260627489,-0.12488795030183698,-0.08373878083974425
-0.030520851807268264,0.18433717125732196,2.1857798575297775,-0.08929965611181838,0.13182254007305624,-0.12547719882226505,-0.08624489502380264
-0.03433423120917231,0.18906898382340834,2.201476849951791,-0.0756081255796606,0.1397541440360689,-0.12721220835463656,-0.08944235105173921
-0.03403026618438286,0.19425871373459985,2.2113269760689604,-0.07442992265552834,0.14693206617454185,-0.13359573399260727,-0.09108428793094989
-0.03494216125875122,0.19868524807061613,2.2107475568855977,-0.07678632850379287,0.15457655325201558,-0.13474149500455074,-0.09367681984549306
-0.034182248696777585,0.20295914329159737,2.2032151075018795,-0.07621754088524627,0.16189803383325801,-0.12721220835463656,-0.0966150226819753
-0.036461986382698486,0.20631720382236834,2.1968414964848875,-0.07499871027407494,0.16921951441450045,-0.12200717975752201,-0.09886188367457939
-0.037235715536708,0.21150693373355986,2.1962620773015247,-0.08275859849853232,0.17668455343851236,-0.11676941513149476,-0.103182770198818
-0.037083733024313274,0.2160861071846112,2.2049533650519684,-0.10177235603280484,0.18386247557698535,-0.11503440559912324,-0.10465187161705912
-0.036158021357909034,0.2209705588657326,2.2119063952523232,-0.11782029241322715,0.1910403977154583,-0.11212089902589559,-0.10741723899257183
-0.03814761061107636,0.22631292789195917,2.2026356883185167,-0.1285053741044957,0.19836187829670074,-0.11212089902589559,-0.11121961913390181
-0.037995628098681636,0.22992538694778855,2.1852004383464143,-0.13683404994749968,0.20539624199240428,-0.11503440559912324,-0.11355289785699066
-0.0360060388455143,0.23374136482366467,2.1643413477453497,-0.144553310484918,0.2127177225736467,-0.11968292170472242,-0.1156269233886252
-0.037387698049102726,0.23786262092961086,2.147538191427825,-0.15109436809820406,0.21971619665865785,-0.11968292170472242,-0.1205527340262572
-0.03814761061107636,0.24167859880548698,2.1434295826730696,-0.14634092871463594,0.22628399541536062,-0.11735866365192282,-0.12219467090546787
-0.03829959312347109,0.24534193756632805,2.1382148100228036,-0.10770399834050524,0.23313891105760232,-0.11909367318429435,-0.12418227870661763
-0.03570207382072485,0.2509895848226247,2.1272058455389082,-0.040546431664965764,0.23985026825707456,-0.12662295983420851,-0.12850316523085625
-0.03631000387030376,0.2566372320789213,2.120252815338553,0.03437102323503109,0.24674107351000862,-0.13765500157777838,-0.1301451021100669
-0.036461986382698486,0.2596900143796222,2.1324206181891743,0.12651461743958253,0.2533088722667114,-0.14286003017489296,-0.13230554537218622
-0.03784364558628691,0.2627427966803231,2.1451678402231584,0.24299419618052126,0.25969722296995235,-0.14518428822769253,-0.1351573304781837
-0.0366277854871291,0.26701669190130434,2.146379353061099,0.35833619968436675,0.26612146328388564,-0.14053577212209337,-0.1367128496269096
-0.037387698049102726,0.27052739154711036,2.1370559716560775,0.48017863311445924,0.2717561321625869,-0.13591999204540686,-0.13852762196708981
-0.03631000387030376,0.2737328129628463,2.122570492072005,0.5889795790050186,0.2784674893620592,-0.13127147593980767,-0.13973747019387664
-0.035854056333119576,0.2767855952635472,2.1040290782043916,0.6989587278197104,0.28442516473699175,-0.12547719882226505,-0.14207074891696547
-0.03494216125875122,0.2792278211041079,2.089490924149104,0.8332738611707893,0.28977271673015415,-0.12315294076946547,-0.14250283756938933
-0.034790178746356495,0.28258588163487885,2.07674370211512,0.968239037514493,0.29573039210508667,-0.11968292170472242,-0.14267567303035888
-0.0366277854871291,0.28518074659047465,2.047140649292396,1.0871156497907353,0.30136506098378796,-0.11735866365192282,-0.1450953694839325
-0.0360060388455143,0.28762297243103535,2.0100578215571696,1.1875879198382908,0.3068561714197198,-0.11503440559912324,-0.1448361162924782
-0.03524612628354067,0.28914936358138577,1.9677075467004619,1.2904165957341107,0.31220372341288216,-0.11329939606675173,-0.14431760990956954
-0.03463819623396176,0.29006519827159605,1.9299926253106576,1.400964532167349,0.31755127540604455,-0.11444515707869518,-0.14587312905829544
-0.0360060388455143,0.2911336720768414,1.8893806080040387,1.512121883906173,0.32286293778851455,-0.1156236541195513,-0.14570029359732592
-0.034182248696777585,0.2929653414572619,1.8493480098807826,1.610237748105464,0.3276003663999067,-0.11850442466386629,-0.1448361162924782
-0.0353981087959354,0.2954075672978226,1.806418315840712,1.6916556329317078,0.3324813534540683,-0.12315294076946547,-0.14621879998023454
-0.03570207382072485,0.29479701083768245,1.7588532683337381,1.7499157361456967,0.33707522362269104,-0.13300648547217922,-0.14587312905829544
-0.037083733024313274,0.2946443717226474,1.7037557714430462,1.7255391239222704,0.3413460872950825,-0.14230351768337757,-0.1444904453705391
-0.03448621372156704,0.29479701083768245,1.6411258251686367,1.6054843087218957,0.3456169509674739,-0.14750854628049212,-0.14570029359732592
-0.03524612628354067,0.2958654846429277,1.5668548207557538,1.4818136293750463,0.3498878146398653,-0.14924355581286364,-0.14544104040587158
-0.03570207382072485,0.29556020641285763,1.484524622247005,1.3807725717089443,0.35354855493048654,-0.15274631090651936,-0.1444904453705391
-0.037387698049102726,0.2946443717226474,1.4015623300836784,1.2969576533473968,0.3574964121066467,-0.15274631090651936,-0.14587312905829544
-0.035550091308330124,0.2935758979174021,1.3191794571037148,1.1976635862239735,0.36133660045072974,-0.15097856534523518,-0.1450953694839325
-0.03845157563586581,0.2915915894219465,1.244329033507469,1.0347871888844469,0.36424365891681126,-0.1504220528537198,-0.1448361162924782
-0.03693175051191855,0.289912559156561,1.170690122749164,0.810684867177081,0.36743783426843174,-0.1480977948009202,-0.14570029359732592
-0.0366277854871291,0.2893020026964208,1.1010544718031843,0.5580619091683063,0.3703448927345133,-0.14518428822769253,-0.14526820494490206
-0.03524612628354067,0.28731769420096526,1.029153818594968,0.329815563382958,0.373072503147133,-0.14230351768337757,-0.14526820494490206
-0.03693175051191855,0.28518074659047465,0.942135592148101,0.17998065358296425,0.37551299667421384,-0.13997925963057797,-0.146045964519265
-0.03693175051191855,0.28289115986494895,0.8499025930509678,0.09795335345113472,0.37748692526229394,-0.13647650453692226,-0.14552745813635637
-0.0366277854871291,0.2793804602191429,0.7588284323205604,0.04387790200216735,0.3794967434610663,-0.13880076258972185,-0.14647805317168885
-0.03570207382072485,0.2754118432282318,0.6799220744407742,0.012350816859869329,0.38132711360637694,-0.13997925963057797,-0.14682372409362796
-0.037387698049102726,0.27174850446739074,0.5923771032817592,0.005809759246583271,0.3822243538736861,-0.13647650453692226,-0.14691014182411272
-0.037235715536708,0.2679325265915146,0.4955087507177226,0.023076526238176905,0.38315748375168757,-0.13647650453692226,-0.14889774962526248
-0.03524612628354067,0.2650323834058488,0.3910552742987533,0.05159716253958569,0.38330104219445704,-0.13765500157777838,-0.14967550919962544
-0.03631000387030376,0.26182696199011285,0.2941869217347168,0.06646689599587574,0.38315748375168757,-0.13591999204540686,-0.15183595246174472
-0.03769166307389218,0.2561793147338162,0.20838020812579042,0.06053525368817533,0.3820807954309166,-0.13824425009820646,-0.15460131983725744
-0.03784364558628691,0.25190541951283496,0.13005326942936718,0.04505610492629963,0.38071699022460675,-0.1417142691629495,-0.15900862409198083
-0.035550091308330124,0.24702096783171354,0.058679360933298924,0.02722055031615938,0.3793172954076045,-0.1417142691629495,-0.16384801699912807
-0.03509414377114595,0.24167859880548698,-0.0010534894242962105,0.006419174552168928,0.3765896849949848,-0.14230351768337757,-0.1711935240903337
-0.0366277854871291,0.23511511685898007,-0.05499214794826218,-0.004875322444685261,0.3736826265289032,-0.1504220528537198,-0.18035380352171956
-0.03829959312347109,0.22916219137261334,-0.09270706933806652,0.0004875322444685262,0.3701654446810515,-0.15736209098320586,-0.19089676664086178
-0.037387698049102726,0.22371806293636343,-0.11762209422267189,0.008206792781886857,0.36621758750489136,-0.1590971005155774,-0.20489643897939486
-0.0360060388455143,0.21837569391013686,-0.1396926976616775,0.008816208087472514,0.36101359395449845,-0.16315636810074852,-0.22174789642392542
-0.036461986382698486,0.21211749019370005,-0.16402830336291996,0.010603826317190444,0.3555224835185666,-0.1672156356859196,-0.2401548730171819
-0.036461986382698486,0.2047908126720179,-0.19131367945219183,0.024254729162309176,0.3494212497008646,-0.1666591231944042,-0.2600309510286795
-0.0366277854871291,0.19807469161047594,-0.21796696188688594,0.04745313846160321,0.34242277561585344,-0.16374561662117657,-0.28535134606071777
-0.03570207382072485,0.19059537497375878,-0.2377198885924399,0.06703568361442235,0.3347782885383797,-0.15795133950363394,-0.3100668169793626
-0.03829959312347109,0.18311605833704162,-0.2527847873598757,0.0706109200738582,0.3269902430181365,-0.15562708145083434,-0.3363378070467334
-0.0366277854871291,0.17670521550556975,-0.2673229414151634,0.06350107484202554,0.31769483384881403,-0.15330282339803475,-0.3670161013688275
-0.0360060388455143,0.17059965090416795,-0.2876026128328655,0.06053525368817533,0.3086865415650304,-0.15274631090651936,-0.3955339524288023
-0.03448621372156704,0.16220449957724054,-0.29977041568348667,0.06053525368817533,0.29831444407493696,-0.14924355581286364,-0.4250888162545944
-0.0353981087959354,0.1538093482503131,-0.30962054180065623,0.05399419607488928,0.28733222320307333,-0.14518428822769253,-0.4565448701510515
-0.035550091308330124,0.14648267072863094,-0.324158695855944,0.05159716253958569,0.276780677659518,-0.14459503970726448,-0.4856676453244197
-0.03509414377114595,0.13930863232198387,-0.3409618521734685,0.05456298369343589,0.26504477496311474,-0.14459503970726448,-0.5131484836185772
-0.03357431864719868,0.13152403745519659,-0.3519708166573639,0.05752880484728609,0.2529858657704801,-0.143449278695321,-0.5374318658847982
-0.03494216125875122,0.12389208170344437,-0.3554473317575414,0.06228224423085422,0.24092695657784552,-0.14403852721574908,-0.5601597290022933
-0.03372630115959341,0.11519165214644685,-0.3589238468577189,0.06528869307174347,0.22843737205690254,-0.14636278526854868,-0.5745050722627655
-0.03219265944361026,0.1067965008195194,-0.36766780907937746,0.06585748069029007,0.2157683394824977,-0.14924355581286364,-0.5845295289989991
-0.03357431864719868,0.09916454506776719,-0.37577967764645825,0.06528869307174347,0.20295574846532347,-0.15097856534523518,-0.5884183268708139
-0.03494216125875122,0.09168522843105001,-0.384470965396902,0.06171345661230761,0.18967659250914845,-0.14924355581286364,-0.5815049084320321
-0.034182248696777585,0.08405327267929778,-0.3867886421303537,0.05992583838258968,0.17668455343851236,-0.1498328043332917,-0.5671595651715599
-0.03280058949318916,0.07748979073279087,-0.3838915462135391,0.0700421324553116,0.16311828059679842,-0.14636278526854868,-0.5438267779406714
-0.03372630115959341,0.06990871468605034,-0.3850503845802649,0.07479557183887972,0.1495520077550845,-0.14459503970726448,-0.506407900640765
-0.033270353622409224,0.061818841589192985,-0.384470965396902,0.07122033537944386,0.13609340374544765,-0.1417142691629495,-0.4594830729875337
-0.03295257200558389,0.05388160760737067,-0.3838915462135391,0.07479557183887972,0.12313725428550394,-0.13533074352497879,-0.3997684212225561
