-0.072402255,-0.056736668,-0.054965776,-0.053807885,-0.057894559,-0.066612799,-0.064841906,-0.079962603,-0.093312407,-0.098488862,-0.111838666,-0.130977927,-0.139083165,-0.148414406,-0.151888079,-0.148959296,-0.15304597,-0.149572297,-0.147256514,-0.136222493,-0.123417578,-0.11531234,-0.11531234,-0.117083232,-0.118786013,-0.115925341,-0.110067774,-0.11476745,-0.1065941,-0.104891319,-0.118241124,-0.131590928,-0.139083165,-0.157064534,-0.171572229,-0.188395707,-0.195343054,-0.169869448,-0.144872621,-0.130433037,-0.118241124,-0.112451668,-0.120556906,-0.124575469,-0.121101796,-0.110680775,-0.101962536,-0.115925341,-0.122259687,-0.123417578,-0.139696166,-0.154203862,-0.151275078,-0.147256514,-0.157677535,-0.166940665,-0.163466991,-0.147256514,-0.136767382,-0.126891252,-0.115925341,-0.110067774,-0.11476745,-0.108909883,-0.099101863,-0.089770623,-0.088067841,-0.121101796,-0.151888079,-0.169869448,-0.183764142,-0.188395707,-0.179132578,-0.16285399,-0.151888079,-0.16285399,-0.173888012,-0.157677535,-0.137380384,-0.119399015,-0.113609559,-0.119943905,-0.131590928,-0.130433037,-0.119943905,-0.109522884,-0.097943972,-0.111838666,-0.118786013,-0.117083232,-0.13390671,-0.160538207,-0.18144836,-0.203516404,-0.218024099,-0.231918794,-0.236550358,-0.211008641,-0.1901666,-0.169256447,-0.147256514,-0.139083165,-0.138538275,-0.129820035,-0.11476745,-0.092699406,-0.075262927,-0.079962603,-0.078191711,-0.070086472,-0.06777069,-0.052649993,-0.012668692,0.032625287,0.08364061,0.133498043,0.183423586,0.255893952,0.331906103,0.406760363,0.483317403,0.561032335,0.636431485,0.729812004,0.831365872,0.930535846,1.021055693,1.081947147,1.142293711,1.185203796,1.203730055,1.214219187,1.221711424,1.23621912,1.243779468,1.226342989,1.173011883,1.117909885,1.079631364,1.05640543,1.034337386,0.983322062,0.893960107,0.787229784,0.679954571,0.578468815,0.486791077,0.402673688,0.337695559,0.27271743,0.190983935,0.122532132,0.07376448,0.027380721,-0.016687255,-0.055578777,-0.078804712,-0.078191711,-0.081120494,-0.074718037,-0.059052451,-0.056123667,-0.064297016,-0.066612799,-0.075262927,-0.085752059,-0.096786081,-0.116470231,-0.120556906,-0.109522884,-0.097330971,-0.093312407,-0.101417646,-0.121714797,-0.142556838,-0.157064534,-0.1623091,-0.139696166,-0.124030579,-0.107207102,-0.089225733,-0.080507493,-0.078804712,-0.078804712,-0.08690995,-0.091541515,-0.08690995,-0.091541515,-0.09617308,-0.107207102,-0.124030579,-0.128662144,-0.122259687,-0.120556906,-0.123417578,-0.132135818,-0.136222493,-0.118241124,-0.095015189,-0.070631362,-0.042228973,-0.039300189,-0.065999798,-0.083981167,-0.089770623,-0.092699406,-0.092699406,-0.110067774,-0.124030579,-0.119943905,-0.119943905,-0.124030579,-0.132135818,-0.147256514,-0.157677535,-0.164624882,-0.166940665,-0.142011948,-0.109522884,-0.080507493,-0.075262927,-0.071789254,-0.062526124,-0.060210342,-0.068928581,-0.077646821,-0.080507493,-0.08690995,-0.08745484,-0.1065941,-0.14371473,-0.150730188,-0.135609491,-0.124030579,-0.111838666,-0.119399015,-0.135064601,-0.122872688,-0.111293776,-0.101417646,-0.088067841,-0.082823275,-0.079349602,-0.069473471,-0.06777069,-0.06777069,-0.081665384,-0.102575537,-0.108909883,-0.108364993,-0.11531234,-0.119943905,-0.11476745,-0.113609559,-0.112451668,-0.122872688,-0.131590928,-0.115925341,-0.099646753,-0.083981167,-0.070631362,-0.058507561,-0.053262995,-0.046315647,-0.049789321,-0.058507561,-0.074105036,-0.097943972,-0.107751992,-0.112451668,-0.126891252,-0.127504253,-0.120556906,-0.122259687,-0.121714797,-0.124030579,-0.121714797,-0.101962536,-0.088067841,-0.078804712,-0.069473471,-0.059052451,-0.042228973,-0.022544823,-0.011510801,0.001839004,-0.00217956,-0.02077393,-0.033510733,-0.048018429,-0.074718037,-0.086296949,-0.102575537,-0.128662144,-0.140241056,-0.142011948,-0.137925274,-0.112996558,-0.093857297,-0.085139058,-0.075262927,-0.063139125,-0.054420886,-0.046860537,-0.037597408,-0.017300257,-0.012668692,-0.010897799,0.000681112,-0.016142365,-0.062526124,-0.100259754,-0.110680775,-0.100804644,-0.082823275,-0.072402255,-0.045702646,-0.004495342,0.00708357,0.00762846,0.008241461,-0.003337451,-0.015529364,-0.013826583,-0.005108343,0.0169597,0.039572634,0.044204199,0.031467396,0.009399352,-0.009195018,-0.00163467,0.0169597,0.028538612,0.035485959,0.027380721,0.018662481,0.034328068,0.047064871,0.056396112,0.056396112,0.051151546,0.051764547,0.06450135,0.079009046,0.096377413,0.099851087,0.091745849,0.096377413,0.103392872,0.098148306,0.100464088,0.104550763,0.097535305,0.090043068,0.081869718,0.087114284,0.110885109,0.129479479,0.148005738,0.168915891,0.185126367,0.190370933,0.195615499,0.198476172,0.203720738,0.190370933,0.169460781,0.159652761,0.146302957,0.133498043,0.132953153,0.137584717,0.136426826,0.138197719,0.138197719,0.141671392,0.152637303,0.154408195,0.163126435,0.175863238,0.17763413,0.175863238,0.174160457,0.170073782,0.179949913,0.179949913,0.16830289,0.15849487,0.144532065,0.12021635,0.106253544,0.108024437,0.110885109,0.108569327,0.093516741,0.090043068,0.099851087,0.109182328,0.122532132,0.132953153,0.132340151,0.128866478,0.135268935,0.124234913,0.117832456,0.124847914,0.132953153,0.128321588,0.098693196,0.052922438,0.018662481,-0.010352909,-0.022544823,-0.019616039,-0.027721277,-0.031807952,-0.019616039,-0.008582017,0.004767787,0.01750459,0.022136155,0.02622283,0.033170177,0.041275415,0.055238221,0.049993655,0.033170177,0.030241393,0.016346699,-0.014984474,-0.027721277,-0.02949217,-0.035281626,-0.043999865,-0.056123667,-0.052649993,-0.043386864,-0.042841974,-0.036439517,-0.028334278,-0.017845147,-0.014371473,-0.013826583,-0.018458148,-0.019616039,-0.036984407,-0.045157756,-0.036439517,-0.035281626,-0.042228973,-0.043999865,-0.04863143,-0.058507561,-0.065999798,-0.075262927,-0.064297016,-0.039300189,-0.028879168,-0.022544823,-0.019616039,-0.027176387,-0.035826516,-0.035826516,-0.028334278,-0.009739908,-0.005721345,-0.014371473,-0.02949217,-0.052105103,-0.071789254,-0.078191711,-0.078804712,-0.075875928,-0.073560146,-0.078804712,-0.067157689,-0.048018429,-0.036984407,-0.014984474,0.011102133,0.011102133,0.002996895,0.002996895,0.012873026,0.040117524,0.039572634,0.016346699,-0.009739908,-0.028879168,-0.053807885,-0.06777069,-0.07703382,-0.08690995,-0.088612731,-0.083981167,-0.065454908,-0.053262995,-0.060210342,-0.065454908,-0.057894559,-0.046315647,-0.032352842,-0.02131882,-0.009195018,0.012260024,0.001294114,-0.024247604,-0.036439517,-0.053807885,-0.071244364,-0.068928581,-0.058507561,-0.046860537,-0.038755299,-0.048018429,-0.049789321,-0.042841974,-0.042228973,-0.045702646,-0.042228973,-0.039300189,-0.038755299,-0.033510733,-0.020160929,-0.004495342,-0.017300257,-0.028879168,-0.03003706,-0.032965843,-0.041684083,-0.043999865,-0.043999865,-0.042228973,-0.03991319,-0.04917632,-0.045157756,-0.026018496,-0.010897799,0.001294114,0.012873026,0.0169597,0.012873026,0.006470568,0.004767787,0.008241461,0.003609896,0.004154786,-0.001021669,-0.028879168,-0.063684015,-0.075875928,-0.075262927,-0.065454908,-0.055578777,-0.064297016,-0.066612799,-0.059052451,-0.046860537,-0.034668624,-0.023089712,-0.020160929,-0.016687255,-0.011510801,-0.00217956,0.015188808,0.00762846,-0.015529364,-0.036984407,-0.043999865,-0.04863143,-0.042841974,-0.037597408,-0.04863143,-0.048018429,-0.034123734,-0.013826583,-0.014984474,-0.031194951,-0.047473539,-0.04863143,-0.036439517,-0.02131882,-0.013826583,-0.013213582,-0.010352909,-0.026018496,-0.034668624,-0.031194951,-0.041071081,-0.064297016,-0.071244364,-0.079962603,-0.083981167,-0.08745484,-0.101417646,-0.09617308,-0.074718037,-0.050334211,-0.015529364,0.004767787,-0.003950452,-0.008582017,-0.008582017,0.000681112,0.018662481,0.005925678,-0.021931821,-0.043999865,-0.063139125,-0.075875928,-0.071244364,-0.06831558,-0.067157689,-0.068928581,-0.083981167,-0.07648893,-0.059052451,-0.048018429,-0.038142298,-0.031807952,-0.028334278,-0.02131882,-0.013826583,-0.010897799,-0.003337451,-0.02077393,-0.043386864,-0.055578777,-0.065454908,-0.080507493,-0.085752059,-0.096786081,-0.103120427,-0.100259754,-0.090383624,-0.061368233,-0.042841974,-0.040526192,-0.036439517,-0.035281626,-0.036984407,-0.032352842,-0.031807952,-0.036439517,-0.034123734,-0.051492102,-0.064841906,-0.070086472,-0.072402255,-0.075875928,-0.075262927,-0.079962603,-0.079349602,-0.074105036,-0.079962603,-0.066612799,-0.044544755,-0.035826516,-0.037597408,-0.044544755,-0.036984407,-0.017845147,-0.014371473,-0.009195018,0.009944242,0.000681112,-0.020160929,-0.052649993,-0.090928514,-0.107751992,-0.10604921,-0.107207102,-0.101417646,-0.092086405,-0.09617308,-0.088612731,-0.083436277,-0.085139058,-0.074105036,-0.059052451,-0.048018429,-0.031807952,-0.026563386,-0.030650061,-0.028334278,-0.035826516,-0.032965843,-0.034668624,-0.050947212,-0.071244364,-0.079962603,-0.077646821,-0.070631362,-0.069473471,-0.080507493,-0.073560146,-0.065454908,-0.065999798,-0.052105103,-0.032352842,-0.03003706,-0.026018496,-0.017300257,-0.019003038,-0.02077393,-0.041071081,-0.048018429,-0.043386864,-0.049789321,-0.065454908,-0.067157689,-0.070086472,-0.070086472,-0.075875928,-0.085139058,-0.071244364,-0.055578777,-0.040526192,-0.026563386,-0.018458148,-0.026018496,-0.028879168,-0.023702714,-0.013826583,-0.001021669,-0.017845147,-0.030650061,-0.03003706,-0.02949217,-0.027721277,-0.023089712,-0.021931821,-0.014371473,-0.010352909,-0.013213582,0.001294114,0.010557243,0.015188808,0.028538612,0.051764547,0.069745916,0.075535372,0.059869785,0.04590698,0.044204199,0.020433374,0.000136222,-0.018458148,-0.041684083,-0.043999865,-0.037597408,-0.040526192,-0.042228973,-0.031194951,-0.02949217,-0.013213582,0.008786351,0.029696503,0.030854395,0.0169597,0.000681112,-0.006266235,-0.006266235,0.000136222,0.016346699,0.002452005,-0.021931821,-0.032965843,-0.042228973,-0.045157756,-0.033510733,-0.033510733,-0.045157756,-0.058507561,-0.072402255,-0.058507561,-0.041684083,-0.031194951,-0.027176387,-0.02949217,-0.034668624,-0.035281626,-0.038755299,-0.03991319,-0.041071081,-0.056123667,-0.063139125,-0.069473471,-0.079349602,-0.081120494,-0.083436277,-0.097943972,-0.108364993,-0.111293776,-0.111293776,-0.083436277,-0.050947212,-0.035281626,-0.038142298,-0.052649993,-0.059665452,-0.052649993,-0.051492102,-0.057894559,-0.060210342,-0.070631362,-0.069473471,-0.074718037,-0.095015189,-0.110067774,-0.119399015,-0.127504253,-0.121714797,-0.117628122,-0.112996558,-0.083436277,-0.052649993,-0.031807952,-0.023089712,-0.028334278,-0.034123734,-0.033510733,-0.027176387,-0.023702714,-0.028879168,-0.056736668,-0.077646821,-0.092699406,-0.107207102,-0.112451668,-0.111293776,-0.117083232,-0.112451668,-0.103120427,-0.100804644,-0.088612731,-0.088067841,-0.092086405,-0.081120494,-0.070086472,-0.065999798,-0.060210342,-0.060210342,-0.065999798,-0.070631362,-0.075262927,-0.06777069,-0.063139125,-0.062526124,-0.059665452,-0.062526124,-0.075262927,-0.09617308,-0.122259687,-0.132135818,-0.117628122,-0.105436209,-0.103120427,-0.10604921,-0.098488862,-0.08690995,-0.079962603,-0.081665384,-0.078191711,-0.080507493,-0.097943972,-0.099646753,-0.09562819,-0.09617308,-0.088612731,-0.061368233,-0.036984407,-0.021931821,-0.014371473,-0.008037127,0.015188808,0.040730525,0.078396044,0.134655934,0.19731828,0.257664845,0.330135211,0.408463144,0.48038862,0.544208858,0.592363509,0.643378832,0.706041179,0.781440328,0.869644392,0.960096127,1.037266169,1.097612734,1.147470166,1.194466926,1.238534902,1.262305727,1.290776228,1.323810182,1.329599638,2,1,23,15,0
-0.110406569,-0.109798709,-0.106343505,-0.105767637,-0.103432175,-0.100520846,-0.097641509,-0.09473018,-0.09473018,-0.09181885,-0.093002578,-0.099944978,-0.104008043,-0.105767637,-0.108071107,-0.110406569,-0.104008043,-0.095881914,-0.093578445,-0.09181885,-0.088939513,-0.088363646,-0.087179919,-0.083724715,-0.077326189,-0.07211139,-0.07211139,-0.077902056,-0.079085783,-0.073263124,-0.057618728,-0.050068467,-0.045429536,-0.040214737,-0.042550199,-0.044853668,-0.046005403,-0.050068467,-0.054131531,-0.052979797,-0.052979797,-0.056466993,-0.05934633,-0.058770463,-0.056466993,-0.052403929,-0.050644334,-0.0494926,-0.051828062,-0.054131531,-0.050644334,-0.048340865,-0.043701934,-0.033848203,-0.022234878,-0.010621553,0.002687381,0.010237642,0.010237642,0.004446976,-0.006590482,-0.018171814,-0.02457034,-0.030936874,-0.038487135,-0.041942339,-0.0494926,-0.059922197,-0.073263124,-0.085452317,-0.09473018,-0.099944978,-0.10228044,-0.105767637,-0.108071107,-0.105767637,-0.10228044,-0.100520846,-0.100520846,-0.098793244,-0.090091248,-0.087179919,-0.086028184,-0.083148847,-0.079661651,-0.076174454,-0.06920006,-0.065168989,-0.066320724,-0.06920006,-0.075598586,-0.084300582,-0.095306047,-0.108646974,-0.121412034,-0.129538162,-0.134177093,-0.141695362,-0.149245622,-0.157371751,-0.15967522,-0.162010682,-0.162586549,-0.165497879,-0.164314151,-0.159099353,-0.157371751,-0.158523485,-0.162586549,-0.162010682,-0.162586549,-0.166649614,-0.167801348,-0.170712678,-0.17244028,-0.171288545,-0.171288545,-0.168377216,-0.164314151,-0.163738284,-0.163162417,-0.164314151,-0.166073746,-0.166073746,-0.162010682,-0.155644149,-0.152156952,-0.151005217,-0.152156952,-0.153884554,-0.155644149,-0.157371751,-0.156795883,-0.157371751,-0.162010682,-0.163162417,-0.162586549,-0.160858947,-0.162586549,-0.162010682,-0.160858947,-0.159099353,-0.157947618,-0.156795883,-0.153308687,-0.149245622,-0.14751802,-0.149245622,-0.14982149,-0.150397357,-0.153308687,-0.156795883,-0.156795883,-0.155644149,-0.158523485,-0.157947618,-0.156795883,-0.157947618,-0.155644149,-0.154460421,-0.155036289,-0.156220016,-0.156220016,-0.157947618,-0.157947618,-0.152732819,-0.146942153,-0.145758426,-0.148093888,-0.14982149,-0.153308687,-0.162010682,-0.179414673,-0.203185198,-0.226955722,-0.246695176,-0.256548906,-0.26061197,-0.254821304,-0.233354249,-0.200881728,-0.17013681,-0.138816025,-0.104008043,-0.065168989,-0.027449677,0.002687381,0.025306171,0.046773226,0.063025483,0.085068405,0.110566532,0.141887317,0.178422902,0.221357012,0.271233523,0.328052436,0.390694007,0.456246907,0.533957007,0.614002569,0.692288537,0.774637568,0.863385126,0.95792335,1.049550244,1.137146067,1.22413403,1.294293869,1.354056103,1.409147414,1.455536728,1.490920578,1.523968965,1.53558229,1.505989107,1.439892332,1.341291044,1.217159637,1.069289697,0.908046838,0.741589181,0.575131523,0.427837451,0.3199583,0.235273806,0.147102116,0.069392016,0.012573104,-0.033240343,-0.068048326,-0.097641509,-0.123715503,-0.152156952,-0.181142275,-0.2049128,-0.221165056,-0.231594654,-0.246119308,-0.265250901,-0.285534229,-0.296571687,-0.294236225,-0.276832234,-0.254821304,-0.236841445,-0.221740924,-0.210159591,-0.200273868,-0.189268403,-0.181718143,-0.178838806,-0.177079211,-0.179990541,-0.184053605,-0.181142275,-0.171288545,-0.167225481,-0.162010682,-0.159099353,-0.157371751,-0.158523485,-0.156220016,-0.155036289,-0.148669755,-0.13766429,-0.130689897,-0.127778567,-0.124323363,-0.119076572,-0.1150455,-0.113861773,-0.113861773,-0.113285905,-0.11443764,-0.116197235,-0.113861773,-0.112710038,-0.113285905,-0.111558303,-0.105159777,-0.105159777,-0.104008043,-0.10228044,-0.099944978,-0.094154312,-0.09181885,-0.093578445,-0.095306047,-0.093002578,-0.089515381,-0.087179919,-0.087179919,-0.087179919,-0.090091248,-0.093002578,-0.090667116,-0.084876449,-0.083724715,-0.083148847,-0.08196512,-0.079661651,-0.077326189,-0.073838992,-0.06980792,-0.06920006,-0.068048326,-0.068048326,-0.067472458,-0.063985261,-0.064561129,-0.065744856,-0.068048326,-0.06980792,-0.072687257,-0.073838992,-0.070959655,-0.06920006,-0.070383788,-0.070959655,-0.068048326,-0.063985261,-0.064561129,-0.062257659,-0.054131531,-0.046005403,-0.043701934,-0.045429536,-0.046005403,-0.048916732,-0.047764998,-0.048916732,-0.048340865,-0.048340865,-0.050644334,-0.048916732,-0.04658127,-0.047764998,-0.044853668,-0.040790604,-0.037303407,-0.035575805,-0.034999938,-0.03672754,-0.033848203,-0.029785139,-0.02687381,-0.027449677,-0.028025545,-0.030936874,-0.032664476,-0.03672754,-0.039063002,-0.037879275,-0.034999938,-0.033848203,-0.029785139,-0.025722075,-0.022234878,-0.020507276,-0.018747682,-0.016444212,-0.012957015,-0.008318084,-0.003679153,-0.002527418,0.000959779,0.002111514,0.000383912,0.000383912,0.002687381,0.003295241,0.00559871,0.006174578,0.005022843,0.00851004,0.013148971,0.012573104,0.015452441,0.017212035,0.016028308,0.020091372,0.025914031,0.029369235,0.035191894,0.043286029,0.05083629,0.051988025,0.05083629,0.054323487,0.058386551,0.058386551,0.061265888,0.06360135,0.064177217,0.066512679,0.071727478,0.074030948,0.077518144,0.082157076,0.085068405,0.087947742,0.091434939,0.09607387,0.106503468,0.116389191,0.123907459,0.127970523,0.13145772,0.137248386,0.144798647,0.147709976,0.152924775,0.153500642,0.155228244,0.162202638,0.170904633,0.178422902,0.18424556,0.191187961,0.198162355,0.203953021,0.208591952,0.217293948,0.228299413,0.236425541,0.243975802,0.250342336,0.256740862,0.260196066,0.263683263,0.267746327,0.270081789,0.271233523,0.273536993,0.281087254,0.28687792,0.292124711,0.300794714,0.307769108,0.312408039,0.316471103,0.323413504,0.330963765,0.337938159,0.344880559,0.348943623,0.350095358,0.353006688,0.358221486,0.364012153,0.367499349,0.368075217,0.368075217,0.368075217,0.372714148,0.379112674,0.383175738,0.384327473,0.387238802,0.38781467,0.387238802,0.386630943,0.388390537,0.391877734,0.393029469,0.388390537,0.380264409,0.373897875,0.369834811,0.361708683,0.351279086,0.343728825,0.3321155,0.3199583,0.311256304,0.29964298,0.285150318,0.27472072,0.26486699,0.250342336,0.235273806,0.222508747,0.212079149,0.202801286,0.192947556,0.181334231,0.169145039,0.156987839,0.146526249,0.133761189,0.122179857,0.109990664,0.094922135,0.079245746,0.067088547,0.058962418,0.049108688,0.04098256,0.035191894,0.025306171,0.017787903,0.010237642,0.003871108,0.000959779,-0.002527418,-0.011229413,-0.017595947,-0.025146208,-0.033240343,-0.040214737,-0.048916732,-0.053555664,-0.061681792,-0.068048326,-0.07211139,-0.074446852,-0.079085783,-0.084300582,-0.087787779,-0.089515381,-0.09242671,-0.095306047,-0.095881914,-0.093578445,-0.095306047,-0.097065642,-0.099944978,-0.10228044,-0.105767637,-0.109222841,-0.111558303,-0.113285905,-0.11443764,-0.116773102,-0.117924837,-0.117924837,-0.116773102,-0.11734897,-0.120260299,-0.120836166,-0.118500704,-0.117924837,-0.119076572,-0.117924837,-0.11443764,-0.11443764,-0.116197235,-0.120260299,-0.121987901,-0.121987901,-0.12489923,-0.1272027,-0.128962295,-0.131841631,-0.131265764,-0.130114029,-0.128962295,-0.1272027,-0.12489923,-0.126050965,-0.127778567,-0.128386427,-0.130689897,-0.1272027,-0.121987901,-0.120836166,-0.121412034,-0.121987901,-0.123715503,-0.126626832,-0.130689897,-0.132417499,-0.134752961,-0.13766429,-0.136480563,-0.134752961,-0.132417499,-0.130114029,-0.1272027,-0.127778567,-0.130114029,-0.129538162,-0.131265764,-0.128962295,-0.123715503,-0.122563768,-0.120260299,-0.122563768,-0.124323363,-0.126626832,-0.127778567,-0.130114029,-0.131265764,-0.133025359,-0.132417499,-0.132417499,-0.133025359,-0.133025359,-0.130689897,-0.129538162,-0.127778567,-0.128962295,-0.131265764,-0.12489923,-0.119684432,-0.11734897,-0.117924837,-0.119076572,-0.119684432,-0.119076572,-0.119076572,-0.121987901,-0.126050965,-0.128386427,-0.125475098,-0.121987901,-0.120260299,-0.119076572,-0.11734897,-0.11734897,-0.116773102,-0.11734897,-0.115621367,-0.113285905,-0.108071107,-0.103432175,-0.105767637,-0.105767637,-0.106919372,-0.109798709,-0.1150455,-0.117924837,-0.119076572,-0.119684432,-0.121412034,-0.121987901,-0.123139636,-0.122563768,-0.121987901,-0.123139636,-0.122563768,-0.123139636,-0.119076572,-0.1150455,-0.110406569,-0.109222841,-0.110982436,-0.110982436,-0.109222841,-0.108646974,-0.111558303,-0.116197235,-0.119076572,-0.120260299,-0.120836166,-0.120836166,-0.119076572,-0.11734897,-0.116197235,-0.115621367,-0.1150455,-0.113861773,-0.112710038,-0.109222841,-0.106343505,-0.10458391,-0.105767637,-0.108646974,-0.112134171,-0.112134171,-0.110406569,-0.113285905,-0.118500704,-0.116773102,-0.1150455,-0.113861773,-0.115621367,-0.118500704,-0.119076572,-0.120836166,-0.122563768,-0.123139636,-0.120260299,-0.11734897,-0.1150455,-0.113861773,-0.115621367,-0.118500704,-0.11734897,-0.11734897,-0.118500704,-0.120260299,-0.123715503,-0.126050965,-0.124323363,-0.12489923,-0.123715503,-0.126050965,-0.1272027,-0.1272027,-0.128962295,-0.128962295,-0.128386427,-0.124323363,-0.121987901,-0.121987901,-0.124323363,-0.124323363,-0.12489923,-0.126050965,-0.12489923,-0.126626832,-0.129538162,-0.130114029,-0.131265764,-0.133025359,-0.130689897,-0.129538162,-0.128386427,-0.128962295,-0.128386427,-0.126626832,-0.124323363,-0.120260299,-0.115621367,-0.11443764,-0.113285905,-0.113861773,-0.116773102,-0.116773102,-0.116773102,-0.119076572,-0.120836166,-0.123715503,-0.122563768,-0.118500704,-0.118500704,-0.118500704,-0.119076572,-0.119684432,-0.118500704,-0.115621367,-0.110406569,-0.104008043,-0.099944978,-0.099944978,-0.101096713,-0.101096713,-0.105767637,-0.109222841,-0.112134171,-0.112710038,-0.111558303,-0.110406569,-0.105767637,-0.099944978,-0.093578445,-0.088939513,-0.089515381,-0.09181885,-0.09181885,-0.090091248,-0.086028184,-0.077326189,-0.07211139,-0.070959655,-0.068048326,-0.061105925,-0.051828062,-0.048340865,-0.04658127,-0.044853668,-0.04658127,-0.050068467,-0.050644334,-0.050644334,-0.052403929,-0.054707399,-0.05934633,-0.063985261,-0.061105925,-0.05934633,-0.05934633,-0.057042861,-0.052403929,-0.052979797,-0.052979797,-0.048340865,-0.043126066,-0.036151673,-0.025722075,-0.016444212,-0.008318084,-0.00195155,0.006174578,0.009085907,0.000959779,-0.010045686,-0.014684618,-0.01702008,-0.023386613,-0.032088609,-0.03672754,-0.041366472,-0.050068467,-0.059922197,-0.066896591,-0.07211139,-0.075022719,-0.076750321,-0.081389253,-0.08196512,-0.079661651,-0.077902056,-0.072687257,-0.070383788,-0.068048326,-0.063985261,-0.066320724,-0.067472458,-0.063985261,-0.061681792,-0.060530057,-0.055283266,-0.052979797,-0.054131531,-0.061105925,-0.067472458,-0.072687257,-0.079085783,-0.086604051,-0.097065642,-0.107495239,-0.117924837,-0.124323363,-0.133601226,-0.139391892,-0.142879089,-0.145758426,-0.14751802,-0.14982149,-0.148669755,-0.146366286,-0.141695362,-0.134752961,-0.133601226,-0.134177093,-0.13766429,-0.141695362,-0.142879089,-0.144030824,-0.145758426,-0.146366286,-0.148669755,-0.151005217,-0.151005217,-0.152732819,-0.152156952,-0.150397357,-0.14982149,-0.148669755,-0.148669755,-0.148093888,-0.142303222,-0.138240157,-0.136480563,-0.138240157,-0.139967759,-0.139391892,-0.140543627,-0.142879089,-0.145182558,-0.149245622,-0.153884554,-0.153884554,-0.153884554,-0.154460421,-0.155644149,-0.154460421,-0.152732819,-0.152732819,-0.151581084,-0.146942153,-0.142303222,-0.139391892,-0.141119494,-0.143454956,-0.144030824,-0.144606691,-0.144606691,-0.142879089,-0.145182558,-0.14982149,-0.150397357,-0.148669755,-0.146942153,-0.148093888,-0.148093888,-0.146942153,-0.148093888,2,1,24,32,0
-0.05202301,-0.052502209,-0.052651959,-0.052651959,-0.052801708,-0.052801708,-0.052502209,-0.052502209,-0.051873261,-0.051573762,-0.050974763,-0.050495565,-0.049896566,-0.049447317,-0.04851887,-0.047770122,-0.046991424,-0.046841674,-0.046542175,-0.046092926,-0.045943177,-0.045943177,-0.045943177,-0.046691925,-0.046991424,-0.047770122,-0.04836912,-0.049297568,-0.050495565,-0.051124513,-0.05217276,-0.053400707,-0.054329154,-0.055377401,-0.05600635,-0.05600635,-0.056605348,-0.056605348,-0.056755098,-0.056455599,-0.056605348,-0.056455599,-0.057234296,-0.056755098,-0.057234296,-0.057683545,-0.058282544,-0.058731792,-0.05951049,-0.060109489,-0.061187686,-0.061786684,-0.063014631,-0.064242578,-0.065470524,-0.066848221,-0.068345717,-0.069423914,-0.070352361,-0.071101109,-0.071879807,-0.072179306,-0.072329056,-0.072179306,-0.071879807,-0.071550358,-0.07095136,-0.070022912,-0.068824915,-0.067297469,-0.065470524,-0.06331413,-0.061337435,-0.058582043,-0.05600635,-0.053400707,-0.050345815,-0.047620372,-0.045314228,-0.042888285,-0.040132892,-0.037527249,-0.034951556,-0.032495663,-0.029440771,-0.026535629,-0.023810186,-0.020905044,-0.017999902,-0.015723708,-0.013267814,-0.01129112,-0.009314425,-0.008086478,-0.006708782,-0.005181336,-0.003953389,-0.003204641,-0.002126444,-0.001826945,-0.001377696,-0.000928448,-0.000449249,0,0.000748748,0.002276194,0.003504141,0.005960034,0.008385978,0.011740369,0.015244509,0.019078099,0.023810186,0.028991522,0.034472358,0.040132892,0.047141174,0.054029655,0.061487185,0.068675166,0.076132696,0.083320676,0.090328958,0.096738241,0.102548525,0.108478609,0.113210696,0.118242283,0.122075873,0.125130764,0.127706457,0.129383653,0.13046185,0.130911099,0.130761349,0.130012601,0.128634905,0.127107459,0.125430264,0.123303819,0.120847926,0.119020981,0.116415338,0.114288893,0.111533501,0.108628359,0.105423717,0.102069326,0.098115937,0.093833098,0.089879709,0.086046119,0.081343982,0.076911394,0.071550358,0.066848221,0.061037936,0.055227652,0.04851887,0.042109587,0.035400805,0.028692023,0.021204543,0.014346012,0.00748748,0.000449249,-0.006559032,-0.013417564,-0.019826847,-0.026385879,-0.032345913,-0.038305947,-0.043337534,-0.04851887,-0.053250957,-0.057533796,-0.060888187,-0.063943078,-0.06699797,-0.069124415,-0.071400608,-0.073407253,-0.074934699,-0.076432195,-0.07828909,-0.079966285,-0.081643481,-0.083320676,-0.084848122,-0.086225819,-0.088202513,-0.089879709,-0.092006153,-0.093833098,-0.096588491,-0.098864685,-0.101919577,-0.104674969,-0.107879611,-0.110335504,-0.113060947,-0.115816339,-0.118092533,-0.120698176,-0.122225622,-0.124052567,-0.125280514,-0.126179012,-0.126957709,-0.127706457,-0.127856207,-0.128185656,-0.127706457,-0.127706457,-0.127257209,-0.126328761,-0.126029262,-0.125280514,-0.124651566,-0.124202317,-0.123453569,-0.122824621,-0.122375372,-0.121926123,-0.121926123,-0.122225622,-0.121926123,-0.122075873,-0.122525121,-0.123303819,-0.123603318,-0.124352066,-0.125130764,-0.126508461,-0.127856207,-0.129533403,-0.131540047,-0.133816241,-0.136272134,-0.138398579,-0.140824522,-0.143729664,-0.146035808,-0.148461752,-0.150618146,-0.152295341,-0.153822787,-0.155020784,-0.155499983,-0.155020784,-0.153343589,-0.151217144,-0.146934306,-0.141153971,-0.133217243,-0.122674871,-0.109706556,-0.093683349,-0.074754999,-0.052951458,-0.027464076,0.001976695,0.034652057,0.071550358,0.112611698,0.157925926,0.205995547,0.258318057,0.314024908,0.3729364,0.435172333,0.49941491,0.566113381,0.63371035,0.702655065,0.771929229,0.840903894,0.908201364,0.972443941,1.031804682,1.083827693,1.129291671,1.165321424,1.191557554,1.207431011,1.212462598,1.206203064,1.188802161,1.160589337,1.121534642,1.072087324,1.013325582,0.945129615,0.868847169,0.785376743,0.696575231,0.603640631,0.508130337,0.412590093,0.317229549,0.225073646,0.136871133,0.053250957,-0.023330987,-0.093533599,-0.156098981,-0.210727635,-0.25712006,-0.295246308,-0.326094725,-0.349275963,-0.365598669,-0.376290791,-0.380693429,-0.381172628,-0.377189288,-0.369881508,-0.359968084,-0.348497265,-0.3353792,-0.322111386,-0.308064874,-0.29434781,-0.281379495,-0.26841118,-0.256790611,-0.245679191,-0.23483732,-0.225373145,-0.216507969,-0.207972242,-0.200963961,-0.19392573,-0.187845896,-0.182335111,-0.177752773,-0.173020686,-0.169516545,-0.165413406,-0.162358514,-0.159453372,-0.15669798,-0.153643088,-0.150618146,-0.147563254,-0.144957611,-0.142202219,-0.139147327,-0.136571634,-0.133816241,-0.131540047,-0.129084154,-0.12680796,-0.124501816,-0.122824621,-0.120548427,-0.118871231,-0.116894536,-0.115367091,-0.114139144,-0.112761448,-0.111383751,-0.110485254,-0.109407057,-0.108328859,-0.107130863,-0.106501914,-0.105273968,-0.10422572,-0.103447023,-0.102848024,-0.102548525,-0.102069326,-0.102069326,-0.101620077,-0.101320578,-0.100871329,-0.101170829,-0.100392131,-0.10054188,-0.099793132,-0.099793132,-0.099493633,-0.098714935,-0.098565186,-0.097816438,-0.09703774,-0.096588491,-0.096288992,-0.095510294,-0.094611796,-0.093683349,-0.09308435,-0.091856404,-0.090628457,-0.090029459,-0.088801512,-0.088352263,-0.087423815,-0.086824817,-0.086824817,-0.086375568,-0.08574662,-0.08574662,-0.08589637,-0.085447121,-0.084698373,-0.084069424,-0.083470426,-0.08209273,-0.081343982,-0.080116035,-0.079187588,-0.077809891,-0.076761644,-0.075234198,-0.073706752,-0.072029557,-0.07065186,-0.068824915,-0.067746718,-0.066219272,-0.064691826,-0.063793329,-0.062715132,-0.061786684,-0.061487185,-0.060738437,-0.060588687,-0.060109489,-0.060109489,-0.059959739,-0.05966024,-0.059210991,-0.058911492,-0.057983044,-0.057833295,-0.057234296,-0.05600635,-0.055077902,-0.053700206,-0.05202301,-0.050645314,-0.048668619,-0.046691925,-0.043786783,-0.041510589,-0.039354194,-0.036479002,-0.034023109,-0.031597165,-0.029440771,-0.027164577,-0.024858433,-0.023031488,-0.021054794,-0.019078099,-0.017400903,-0.016322706,-0.014495761,-0.013267814,-0.012039868,-0.011440869,-0.010063173,-0.008685477,-0.008086478,-0.007158031,-0.005960034,-0.004582338,-0.003204641,-0.001976695,-0.000748748,0.000598998,0.002455893,0.004282839,0.006559032,0.008685477,0.010841871,0.013567314,0.016172957,0.019527348,0.022582239,0.025637131,0.028841773,0.032046414,0.035400805,0.039354194,0.042738535,0.046691925,0.050345815,0.054329154,0.058911492,0.062715132,0.06714772,0.071879807,0.076611894,0.080864783,0.086046119,0.091107656,0.096588491,0.101620077,0.107430362,0.112911197,0.118871231,0.125130764,0.131060848,0.137320382,0.143729664,0.149989198,0.156248731,0.162358514,0.168767797,0.17502733,0.181436613,0.187366697,0.19377598,0.199586265,0.205995547,0.211955581,0.217735916,0.223246701,0.228877286,0.234537821,0.239719157,0.244750743,0.250081829,0.255442865,0.260474451,0.265655787,0.270687374,0.27571896,0.281079996,0.286411082,0.292041667,0.297402702,0.302284539,0.307615625,0.312347712,0.317379299,0.321961636,0.326394224,0.330347614,0.334330953,0.338583842,0.342267682,0.345622073,0.349126213,0.352330855,0.355086248,0.357661941,0.360267584,0.362394028,0.363921474,0.36529917,0.367126115,0.368204312,0.368803311,0.369731758,0.371079505,0.371259204,0.371558703,0.371858203,0.371408954,0.370929755,0.370181007,0.36910281,0.367725114,0.365748419,0.364220973,0.362394028,0.359638635,0.356583743,0.353229352,0.349725212,0.345921572,0.341488984,0.336906646,0.33172531,0.325765276,0.319206244,0.312347712,0.305189681,0.296923504,0.288387776,0.279852049,0.270387875,0.26107345,0.251609275,0.241695852,0.231782428,0.221569506,0.211626132,0.201562959,0.191949035,0.182035612,0.172421687,0.163257012,0.153972537,0.145107361,0.137020882,0.128634905,0.120698176,0.112911197,0.106052666,0.099044384,0.092155903,0.08559687,0.079337337,0.073557003,0.06714772,0.061037936,0.055077902,0.049297568,0.043487283,0.038006448,0.031896664,0.02608638,0.019976596,0.013747013,0.007786979,0.002276194,-0.00365389,-0.008835226,-0.014046512,-0.0187786,-0.023510687,-0.027913325,-0.032345913,-0.035999803,-0.040132892,-0.043187784,-0.046691925,-0.049597067,-0.052502209,-0.054628653,-0.056755098,-0.058282544,-0.05951049,-0.060588687,-0.061786684,-0.062864881,-0.063943078,-0.064542077,-0.064991326,-0.065320775,-0.065919773,-0.065470524,-0.066219272,-0.066518772,-0.066668521,-0.066848221,-0.067297469,-0.067297469,-0.068195967,-0.068974665,-0.069423914,-0.069873163,-0.071101109,-0.071400608,-0.072029557,-0.072778305,-0.073557003,-0.074156001,-0.075084449,-0.076132696,-0.076761644,-0.077959641,-0.078888088,-0.079966285,-0.080715033,-0.081643481,-0.082841478,-0.083769925,-0.084069424,-0.084848122,-0.084997872,-0.08589637,-0.08574662,-0.08559687,-0.085447121,-0.085297371,-0.084848122,-0.084698373,-0.084219174,-0.083021177,-0.082392229,-0.081793231,-0.081014533,-0.080265785,-0.079636836,-0.079337337,-0.079187588,-0.078888088,-0.079037838,-0.078888088,-0.079487087,-0.079636836,-0.079487087,-0.079966285,-0.080116035,-0.080116035,-0.081164282,-0.080715033,-0.081014533,-0.081343982,-0.081493731,-0.081493731,-0.081793231,-0.081493731,-0.081493731,-0.081014533,-0.080415534,-0.080116035,-0.079337337,-0.078738339,-0.077959641,-0.077510392,-0.077061143,-0.076432195,-0.075683447,-0.074934699,-0.074305751,-0.0744555,-0.074006251,-0.073706752,-0.072778305,-0.072628555,-0.072478806,-0.072179306,-0.072029557,-0.071550358,-0.071101109,-0.07080161,-0.07065186,-0.069723413,-0.069274164,-0.068345717,-0.067746718,-0.06699797,-0.066668521,-0.065770024,-0.065320775,-0.065141075,-0.064392327,-0.064092828,-0.06331413,-0.063164381,-0.062715132,-0.061936434,-0.061636935,-0.060738437,-0.060438938,-0.05980999,-0.059360741,-0.059061242,-0.058282544,-0.057983044,-0.057533796,-0.057384046,-0.056605348,-0.056156099,-0.055377401,-0.054778403,-0.054478904,-0.053700206,-0.053400707,-0.052651959,-0.05235246,-0.05202301,-0.051274262,-0.051274262,-0.050974763,-0.050345815,-0.050345815,-0.050046316,-0.049896566,-0.049597067,-0.049297568,-0.048668619,-0.04851887,-0.048219371,-0.047770122,-0.047290923,-0.046392426,-0.046092926,-0.045613728,-0.04486498,-0.044236031,-0.043487283,-0.043187784,-0.043487283,-0.043038035,-0.042558836,-0.042409086,-0.042738535,-0.043038035,-0.043038035,-0.043187784,-0.043786783,-0.04471523,-0.045314228,-0.045943177,-0.047290923,-0.048219371,-0.048818369,-0.049746817,-0.050495565,-0.050495565,-0.050645314,-0.050825014,-0.050345815,-0.049896566,-0.048818369,-0.04836912,-0.047620372,-0.047141174,-0.046242676,-0.045613728,-0.04486498,-0.044415731,-0.043786783,-0.043487283,-0.043637033,-0.043038035,-0.043187784,-0.043487283,-0.04456548,-0.045314228,-0.046392426,-0.047919871,-0.049297568,-0.050495565,-0.052502209,-0.053700206,-0.054928153,-0.056156099,-0.057533796,-0.057983044,-0.058432293,-0.059061242,-0.058911492,-0.05951049,-0.059360741,-0.059061242,-0.058282544,-0.057683545,-0.056755098,-0.055377401,-0.054179405,-0.052951458,-0.051573762,-0.050046316,-0.048968119,-0.048069621,-0.047141174,-0.046691925,-0.046392426,-0.046092926,-0.046542175,-0.046691925,-0.047290923,-0.048219371,-0.049447317,-0.050825014,-0.051873261,-0.053400707,-0.054928153,-0.05600635,-0.057683545,-0.058911492,-0.059959739,-0.060738437,-0.061636935,-0.062415633,-0.06346388,-0.06346388,-0.064242578,-0.064242578,-0.064392327,-0.064542077,-0.064691826,-0.064841576,-0.064841576,-0.064991326,-0.065141075,-0.065320775,-0.065470524,-0.066069523,-0.066369022,-0.067297469,-0.067596969,-0.068525416,-0.069124415,-0.069723413,-0.070352361,-0.071101109,-0.071250859,-0.071101109,-0.071101109,-0.070502111,-0.070202612,7,1,28,30,0
0,0.000864172,0.000388877,0,0.000345669,0.000842568,2.16E-05,0.000712942,0.000172834,0.000259252,0.000993798,-0.001620323,-0.000561712,-0.002074013,-0.002851768,-0.003823962,-0.003737545,-0.003910379,-0.003996796,-0.003672732,-0.003067811,-0.002786955,-0.000583316,2.16E-05,0.001339467,0.002657329,0.004126422,0.004104818,0.006805356,0.006740543,0.008209636,0.009829958,0.008404074,0.010499692,0.009289851,0.01008921,0.009873167,0.009743541,0.009808354,0.008728139,0.009246642,0.008274449,0.006567708,0.007626319,0.007043003,0.006265248,0.006718939,0.005746745,0.005206637,0.006005997,0.005401076,0.006762147,0.007021399,0.005444285,0.007647924,0.007410276,0.008101614,0.008620117,0.008965786,0.007950384,0.009678728,0.008792952,0.009873167,0.010650922,0.008965786,0.010629318,0.009246642,0.008900973,0.007950384,0.00838247,0.007107816,0.006308457,0.005163429,0.003132624,0.002311661,0.001015402,-0.000280856,-0.001879574,-0.003305459,-0.004256048,-0.006891773,-0.006567708,-0.008965786,-0.009052203,-0.008922578,-0.01119103,-0.010067606,-0.011147821,-0.011126217,-0.010888569,-0.010456483,-0.008900973,-0.009462685,-0.007453485,-0.007021399,-0.007323859,-0.005077012,-0.005228242,-0.005098616,-0.005249846,-0.006178831,-0.00838247,-0.008339261,-0.012379266,-0.013869963,-0.017153818,-0.021906765,-0.023505483,-0.026962172,-0.030678112,-0.033032981,-0.035323037,-0.038304431,-0.039363042,-0.040940157,-0.042301228,-0.041782724,-0.043683903,-0.042409249,-0.04286294,-0.041415451,-0.041004969,-0.040767322,-0.038304431,-0.038369244,-0.036316835,-0.034912556,-0.035884749,-0.032514478,-0.032752125,-0.031563889,-0.031110198,-0.03041886,-0.0301164,-0.030354047,-0.029381854,-0.029684314,-0.029684314,-0.028625703,-0.028776933,-0.028928163,-0.027999178,-0.027977574,-0.027783135,-0.026681316,-0.027567092,-0.026465273,-0.025989978,-0.027502279,-0.025363453,-0.025989978,-0.025860352,-0.025881957,-0.025169014,-0.026724524,-0.026314043,-0.026810942,-0.028539286,-0.028452869,-0.029403458,-0.029921961,-0.031801536,-0.032147205,-0.034048384,-0.036532879,-0.036748922,-0.039708711,-0.041177804,-0.042474062,-0.046686902,-0.047248613,-0.050575676,-0.053146588,-0.056171191,-0.058439643,-0.06118339,-0.064985747,-0.067275803,-0.070926931,-0.074578058,-0.076263194,-0.078855711,-0.081318601,-0.082247586,-0.083651866,-0.084451225,-0.081901917,-0.080432825,-0.076349611,-0.071834312,-0.065957941,-0.056127982,-0.045973959,-0.034178009,-0.018838953,-0.0020092,0.016051998,0.038239619,0.060405635,0.085941922,0.112990511,0.13833236,0.167346941,0.193315315,0.220018235,0.243826178,0.267158827,0.288179815,0.306003366,0.322271407,0.335169176,0.344696675,0.352690267,0.356687063,0.356989524,0.355001928,0.349319996,0.339684476,0.329400827,0.314969152,0.299781326,0.283210825,0.262362671,0.243804574,0.222934816,0.202086662,0.180763214,0.160195916,0.138591612,0.118024314,0.097802685,0.076954532,0.058093974,0.039233417,0.021906765,0.003975192,-0.012120015,-0.028366452,-0.043662299,-0.056084774,-0.069997946,-0.081016141,-0.091083747,-0.103138949,-0.108777672,-0.116555222,-0.121697046,-0.12638518,-0.127573417,-0.12964743,-0.129431387,-0.128005503,-0.126104324,-0.12266924,-0.117397789,-0.11288249,-0.107286975,-0.101216165,-0.095123752,-0.089960323,-0.082161169,-0.077256992,-0.07112137,-0.064812913,-0.061723497,-0.055998357,-0.052412042,-0.048047973,-0.045369039,-0.04160989,-0.040616092,-0.037915554,-0.037202612,-0.036165605,-0.034826138,-0.037008173,-0.035042182,-0.037051382,-0.036921756,-0.038001971,-0.037872345,-0.039859941,-0.040184006,-0.041566681,-0.042193206,-0.04206358,-0.04377032,-0.043489464,-0.044288824,-0.043856738,-0.044504867,-0.044850536,-0.043359839,-0.043705508,-0.042690105,-0.043187004,-0.043230213,-0.041134595,-0.041177804,-0.040616092,-0.039298229,-0.039190208,-0.039557481,-0.037764324,-0.037829137,-0.037116195,-0.035495872,-0.037872345,-0.035495872,-0.0366409,-0.036122397,-0.036662504,-0.036144001,-0.036079188,-0.03694336,-0.036424857,-0.037289029,-0.037548281,-0.038239619,-0.036813734,-0.038434057,-0.037634698,-0.03849887,-0.038887748,-0.037483468,-0.03880133,-0.038001971,-0.038282827,-0.039298229,-0.036986569,-0.037721115,-0.037397051,-0.036748922,-0.035819936,-0.036403253,-0.034696513,-0.034696513,-0.034199614,-0.032816938,-0.033119398,-0.031434263,-0.031736723,-0.030656508,-0.030505278,-0.030505278,-0.028820142,-0.029144206,-0.028668912,-0.027912761,-0.029425062,-0.027286236,-0.028193617,-0.028020783,-0.028323243,-0.026918963,-0.027826344,-0.02780474,-0.027631905,-0.027934365,-0.027610301,-0.027739927,-0.026659711,-0.026940567,-0.026011582,-0.025687518,-0.025363453,-0.024132008,-0.024564094,-0.023008584,-0.02313821,-0.022360455,-0.021712326,-0.020308046,-0.020416068,-0.019011788,-0.019119809,-0.018946975,-0.01721863,-0.017629112,-0.016376063,-0.015252639,-0.016743336,-0.014410071,-0.014669323,-0.013697129,-0.013481086,-0.012681727,-0.012768144,-0.012703331,-0.012206432,-0.012292849,-0.012530496,-0.010629318,-0.010866965,-0.010478088,-0.00993798,-0.009397872,-0.00978675,-0.007712737,-0.008058405,-0.007215838,-0.005293055,-0.006265248,-0.004342465,-0.004709738,-0.002786955,-0.002398078,-0.0020092,0.000216043,0.000777755,0.002398078,0.00295979,0.004126422,0.006049205,0.007993593,0.008706535,0.010802152,0.012120015,0.013610712,0.01631125,0.017499486,0.020048794,0.021841952,0.022706124,0.026789337,0.028582495,0.030224422,0.03277373,0.035647102,0.036835339,0.039406251,0.041199408,0.043921551,0.045736312,0.047853534,0.049949151,0.051763913,0.053859531,0.055069372,0.056106378,0.059282211,0.059563067,0.061356224,0.063451842,0.062522857,0.065525855,0.065482646,0.066368423,0.066498049,0.067815911,0.067016552,0.068053558,0.06785912,0.068744896,0.069457838,0.067599868,0.069695486,0.068291206,0.069025752,0.068226393,0.069285004,0.068334414,0.0687665,0.068572062,0.068247997,0.068226393,0.068960939,0.06861527,0.067837515,0.068420832,0.067470242,0.066065962,0.067102969,0.065547459,0.065677085,0.065806711,0.0627389,0.064402431,0.06193954,0.061313016,0.060059966,0.059433441,0.058655686,0.056948946,0.056322421,0.054615681,0.053211401,0.053168193,0.052066373,0.050359633,0.049711504,0.048609685,0.046902945,0.047788721,0.045930751,0.045757916,0.044958557,0.043554277,0.043986363,0.043338234,0.042387645,0.042668501,0.041869142,0.040464862,0.041372243,0.039665503,0.039492668,0.039168604,0.036856943,0.037591489,0.036208814,0.034674908,0.033724319,0.032795334,0.030029983,0.029230624,0.027675114,0.025665913,0.024261634,0.021647513,0.020848154,0.018061198,0.017261839,0.014950179,0.012314453,0.011968785,0.00993798,0.008512096,0.008317657,0.005379472,0.005789954,0.004212839,0.003391876,0.001814762,0.001469093,0.000669733,-0.00030246,-0.000799359,-0.001922783,-0.001663531,-0.002786955,-0.002376473,-0.003651127,-0.003543106,-0.00466653,-0.005336263,-0.005703536,-0.00682696,-0.007021399,-0.008166427,-0.010197232,-0.009052203,-0.010478088,-0.011147821,-0.011363864,-0.011601511,-0.013481086,-0.012638518,-0.013783546,-0.014021193,-0.013329856,-0.015101409,-0.01380515,-0.014669323,-0.014150819,-0.014107611,-0.014215632,-0.012789748,-0.013524294,-0.012573705,-0.012379266,-0.013113813,-0.010780548,-0.01119103,-0.010845361,-0.010024397,-0.009829958,-0.010715735,-0.009289851,-0.010175627,-0.009376268,-0.008296053,-0.010132419,-0.007842362,-0.009225038,-0.008792952,-0.008965786,-0.008101614,-0.009505894,-0.008188031,-0.009311455,-0.008749743,-0.007734341,-0.009462685,-0.007539902,-0.008792952,-0.007755945,-0.00823124,-0.00838247,-0.00792878,-0.008555304,-0.00792878,-0.008058405,-0.009570707,-0.007280651,-0.007712737,-0.007691132,-0.007215838,-0.006286853,-0.006740543,-0.005941184,-0.005465889,-0.0045153,-0.003283854,-0.003694336,-0.001836366,-0.002246848,-0.000972194,-0.000475295,0.000799359,0.001598719,0.001814762,0.002614121,0.002981394,0.004234444,0.003672732,0.005401076,0.004688134,0.005055407,0.004644925,0.006070809,0.005033803,0.005228242,0.00496899,0.004860968,0.005681932,0.004644925,0.005617119,0.005206637,0.005401076,0.004990594,0.005357867,0.006459687,0.005746745,0.006870169,0.007367068,0.006200435,0.00883616,0.008274449,0.008771348,0.008965786,0.01039167,0.010283649,0.010650922,0.011169425,0.011536698,0.012379266,0.012768144,0.013632316,0.013589107,0.01460451,0.014734136,0.014712531,0.016073602,0.015598308,0.016484084,0.018104407,0.015749538,0.017607508,0.016808149,0.016851357,0.017737134,0.017931573,0.016224833,0.017780342,0.017153818,0.017413069,0.017780342,0.01676494,0.017909968,0.016937775,0.017391465,0.017002587,0.017132213,0.018536493,0.017564299,0.018493284,0.018558097,0.016851357,0.018838953,0.018752536,0.018687723,0.018514889,0.018666119,0.017305048,0.018212428,0.017175422,0.017477882,0.018082803,0.015295847,0.017089005,0.01520943,0.015749538,0.015036596,0.014950179,0.014842157,0.014561301,0.01445328,0.013869963,0.013740338,0.013610712,0.014410071,0.013826755,0.014172424,0.013589107,0.013913172,0.014258841,0.013826755,0.014302049,0.013891568,0.014669323,0.013632316,0.015187826,0.014129215,0.01445328,0.013869963,0.013740338,0.014388467,0.013481086,0.01380515,0.013524294,0.011407073,0.013265043,0.012530496,0.01179595,0.01149349,0.011666324,0.009873167,0.010650922,0.009894771,0.009462685,0.00948429,0.008123218,0.008576909,0.007518298,0.007842362,0.007237442,0.006481291,0.007086212,0.005725141,0.006632521,0.006632521,0.004040005,0.006027601,0.004796156,0.005098616,0.004493695,0.00386717,0.002786955,0.003996796,0.002614121,0.002743747,0.003499897,0.000583316,0.002246848,0.000993798,0.000518503,4.32E-05,-0.000129626,-0.001512301,-0.000777755,-0.001879574,-0.001598719,-0.001188237,-0.003651127,-0.002030805,-0.003586315,-0.003651127,-0.004299257,-0.00466653,-0.005033803,-0.006005997,-0.0065245,-0.007064607,-0.009873167,-0.009030599,-0.010650922,-0.01149349,-0.012184828,-0.012141619,-0.014215632,-0.015079804,-0.015641516,-0.017413069,-0.018277241,-0.019011788,-0.01942227,-0.020459276,-0.020416068,-0.020826549,-0.022166016,-0.020761736,-0.021777139,-0.020826549,-0.02032965,-0.022425268,-0.020243233,-0.021258635,-0.021064197,-0.021150614,-0.021561096,-0.022878958,-0.021150614,-0.022468476,-0.022101203,-0.022965375,-0.024585698,-0.023764735,-0.024909763,-0.025601101,-0.026292438,-0.026378856,-0.028452869,-0.028063991,-0.02951148,-0.029878753,-0.028884955,-0.031844744,-0.030699716,-0.0321256,-0.032320039,-0.032989773,-0.033486672,-0.03352988,-0.034178009,-0.034069988,-0.034566887,-0.035971167,-0.034156405,-0.035409455,-0.035582289,-0.035452663,-0.035020577,-0.036576087,-0.035971167,-0.036748922,-0.036921756,-0.036316835,-0.038779726,-0.037267425,-0.039103791,-0.039255021,-0.040032776,-0.039579085,-0.040486466,-0.040961761,-0.041566681,-0.041869142,-0.041717912,-0.043856738,-0.042646897,-0.044612888,-0.044612888,-0.045088183,-0.044483262,-0.045865938,-0.045412248,-0.045865938,-0.046190003,-0.045887542,-0.046514067,-0.046211607,-0.046686902,-0.046406046,-0.04673011,-0.047529469,-0.045714708,-0.046967757,-0.046233211,-0.045671499,-0.04783193,-0.045585082,-0.046384441,-0.045952355,-0.046146794,-0.045433852,-0.046233211,-0.045498665,-0.045865938,-0.045455456,-0.044115989,-0.046146794,-0.044980161,-0.045649895,-0.044785723,-0.045455456,-0.045347435,-0.044353637,-0.045152996,-0.044461658,-0.045109787,4,0,24,15,0
-0.070659204,-0.070659204,-0.078187821,-0.075305772,-0.063699155,-0.053837451,-0.024840514,0.000686202,0.007646251,0.025624745,0.038976276,0.048837979,0.065659732,0.055798029,0.043034671,0.047681239,0.036074621,0.029114572,0.025624745,0.019841042,0.018664695,0.020409609,0.023899437,0.048249806,0.084226399,0.128888349,0.192116965,0.258247236,0.30581084,0.349884617,0.392821259,0.417171628,0.399193135,0.329592642,0.261717458,0.225172298,0.192116965,0.192116965,0.184568743,0.160218373,0.148023583,0.107420028,0.047681239,-0.015547378,-0.097911228,-0.184353079,-0.237719992,-0.278323547,-0.310222139,-0.311967053,-0.314868707,-0.324730411,-0.328200632,-0.346767299,-0.359530657,-0.345610558,-0.335160682,-0.31253562,-0.289930164,-0.277735374,-0.260345054,-0.243523301,-0.228426856,-0.205233227,-0.177961597,-0.147219746,-0.101989229,-0.076462513,-0.05964076,-0.034114044,-0.023664167,-0.015547378,0.003587856,-0.001039106,-0.008587328,0.000117635,-0.006273847,-0.01090081,-0.012077156,-0.022507427,-0.022507427,-0.0230956,-0.03236913,-0.034682612,-0.032957304,-0.029467476,-0.007430588,0.004744597,0.012292819,0.0326044,0.041289757,0.045936325,0.060444597,0.046524498,0.029114572,0.025624745,0.014606301,0.007077684,-0.000470539,-0.013233896,-0.013802464,-0.008018761,-0.009744069,-0.005685674,-0.001627279,-0.003372193,0.012880993,0.024468004,0.033172967,0.048249806,0.046524498,0.043034671,0.048837979,0.027369658,0.014037733,0.016939387,0.011136079,0.008234424,0.003019289,-0.013233896,-0.010332242,0.002431116,0.005920943,0.007646251,0.014037733,0.020409609,0.043622844,0.052308201,0.052896374,0.059856424,0.051151461,0.045348152,0.061013164,0.051151461,0.046524498,0.048837979,0.040133016,0.037231362,0.03376114,0.025624745,0.029114572,0.029114572,0.015782647,0.015194474,0.022742696,0.031428053,0.052308201,0.05811151,0.057542942,0.064502992,0.061601337,0.059856424,0.066816473,0.048837979,0.045936325,0.050582893,0.043622844,0.036074621,0.031428053,0.026212918,0.030859486,0.031428053,0.023899437,0.023311264,0.027369658,0.034329708,0.059856424,0.073776522,0.081324744,0.092931362,0.096401584,0.097558324,0.107420028,0.091186448,0.083069658,0.085383139,0.076109609,0.074364695,0.072619781,0.058699683,0.055209855,0.052896374,0.045348152,0.045348152,0.052308201,0.057542942,0.07842309,0.088284794,0.091186448,0.096989757,0.096989757,0.099303238,0.108576768,0.087128053,0.081324744,0.080168004,0.069129954,0.065071559,0.068561387,0.072619781,0.081324744,0.080168004,0.074364695,0.07842309,0.087128053,0.091186448,0.10685146,0.113223336,0.124829954,0.137593312,0.134691657,0.13120183,0.138161879,0.121340126,0.117281731,0.11381151,0.096401584,0.087128053,0.078991658,0.071463041,0.079579831,0.085951707,0.085383139,0.089441534,0.094088102,0.098715065,0.121928299,0.135260225,0.146866842,0.162531854,0.173550298,0.181667088,0.189215311,0.168335163,0.161375114,0.156140372,0.145121928,0.13931862,0.134691657,0.131790003,0.14339662,0.15151341,0.147455015,0.150925237,0.1596302,0.168335163,0.19617536,0.210095459,0.217643681,0.227505385,0.226329038,0.229230693,0.243738964,0.229230693,0.226329038,0.224015557,0.214153853,0.214742027,0.214153853,0.208938718,0.218800422,0.22460373,0.222270643,0.233877261,0.247228792,0.258247236,0.284930692,0.29769405,0.304654099,0.304065926,0.290145828,0.282597605,0.289557655,0.272735902,0.276794297,0.276794297,0.262874198,0.25707089,0.257659063,0.259403976,0.272167334,0.282597605,0.284342519,0.291890742,0.300007531,0.308712494,0.330749383,0.333062864,0.33016121,0.334807778,0.331906123,0.322632593,0.319730939,0.29361605,0.288400914,0.276794297,0.259972544,0.253600668,0.251287187,0.244895705,0.248385532,0.248385532,0.240249137,0.240249137,0.242582224,0.24083731,0.255345582,0.255345582,0.25707089,0.258247236,0.250699013,0.243738964,0.241425483,0.21240894,0.209507285,0.206037064,0.185725483,0.168335163,0.154415065,0.136436571,0.13120183,0.124241781,0.109753115,0.103361633,0.103361633,0.105675114,0.124829954,0.127731608,0.127731608,0.126574867,0.116124991,0.109753115,0.109164941,0.079579831,0.075521436,0.064502992,0.049426153,0.041289757,0.028526399,0.020409609,0.024468004,0.020997782,0.011704646,0.015194474,0.016939387,0.020409609,0.038388103,0.036662795,0.036074621,0.04072119,0.03376114,0.030859486,0.037231362,0.014606301,0.015782647,0.010547906,-0.000470539,-0.006842415,-0.012077156,-0.013802464,-0.006842415,-0.005685674,-0.010332242,-0.007430588,-0.001627279,0.004744597,0.022154523,0.019841042,0.025624745,0.037231362,0.033172967,0.03376114,0.040133016,0.015782647,0.014606301,0.007077684,-0.001039106,-0.001627279,-0.012645723,-0.03121239,-0.036427525,-0.038760612,-0.042819007,-0.035270785,-0.027153995,-0.017860859,0.00417603,0.008234424,0.017507955,0.02156635,0.012292819,0.006489511,0.001842943,-0.028310736,-0.024252341,-0.028898909,-0.035858958,-0.038172439,-0.042230834,-0.042819007,-0.036427525,-0.038172439,-0.041662267,-0.03121239,-0.017860859,-0.006273847,0.024468004,0.038388103,0.038976276,0.042466103,0.036662795,0.035486448,0.038976276,0.007646251,0.003019289,-0.005685674,-0.0230956,-0.037015699,-0.052092538,-0.057895846,-0.04744597,-0.042230834,-0.044544315,-0.043387575,-0.038760612,-0.028898909,-0.003372193,0.001274375,0.006489511,0.009391165,0.00417603,0.006489511,0.01344956,-0.009175502,-0.00394076,-0.006273847,-0.014390637,-0.016704118,-0.020193946,-0.028310736,-0.027722562,-0.030624217,-0.03236913,-0.027722562,-0.018449032,-0.002215452,0.027369658,0.030859486,0.037819535,0.038976276,0.029702745,0.029114572,0.028526399,-0.00278402,0.001274375,-0.000470539,-0.009744069,-0.013802464,-0.019037205,-0.021938859,-0.013233896,-0.013802464,-0.018449032,-0.015547378,-0.014390637,-0.012077156,0.004744597,0.003587856,0.011136079,0.012292819,0.00417603,0.006489511,0.014606301,-0.007430588,0.001842943,0.001274375,-0.000470539,-0.00394076,-0.014390637,-0.020193946,-0.011488983,-0.016135551,-0.022507427,-0.01497881,-0.00394076,0.011704646,0.029702745,0.02156635,0.023899437,0.031428053,0.028526399,0.027957832,0.031428053,0.005920943,0.014037733,0.009979338,0.000686202,0.002431116,-0.002215452,-0.010332242,-0.009175502,-0.015547378,-0.016135551,-0.006273847,0.00417603,0.017507955,0.045936325,0.047681239,0.047093066,0.042466103,0.032016227,0.035486448,0.042466103,0.018096128,0.022742696,0.012292819,0.000686202,-0.001627279,-0.005685674,-0.008587328,-0.00394076,-0.007430588,-0.009744069,-0.00394076,0.000686202,0.008802992,0.03376114,0.03376114,0.039564449,0.049426153,0.047681239,0.052308201,0.060444597,0.036074621,0.036662795,0.012880993,-0.00394076,-0.005117107,-0.013233896,-0.020193946,-0.022507427,-0.03121239,-0.033525871,-0.025997254,-0.019605773,-0.008018761,0.019841042,0.026801091,0.036662795,0.042466103,0.041289757,0.048837979,0.053484547,0.033172967,0.041289757,0.030859486,0.016939387,0.012880993,0.004744597,0.000117635,0.000117635,-0.009175502,-0.015547378,-0.013802464,-0.012077156,-0.001627279,0.018664695,0.015782647,0.024468004,0.033172967,0.029114572,0.036662795,0.039564449,0.015782647,0.026801091,0.024468004,0.015782647,0.012880993,0.004744597,0.002431116,0.009979338,0.005920943,0.000117635,0.003019289,0.00533277,0.017507955,0.046524498,0.053484547,0.062758078,0.060444597,0.050582893,0.059856424,0.060444597,0.034917881,0.044191411,0.0326044,0.019841042,0.01344956,0.003019289,0.003587856,0.015782647,0.017507955,0.020409609,0.028526399,0.033172967,0.044191411,0.065659732,0.065071559,0.069718127,0.073207955,0.074364695,0.088284794,0.09465667,0.080736571,0.101048152,0.097558324,0.088284794,0.090029707,0.085383139,0.080736571,0.077834917,0.072031608,0.070874868,0.078991658,0.087128053,0.105106547,0.126574867,0.125986694,0.140494966,0.148023583,0.142808447,0.149180323,0.149180323,0.128300175,0.141063533,0.137005138,0.128888349,0.130633262,0.127143435,0.124241781,0.128300175,0.121928299,0.116713164,0.118438472,0.120771559,0.13235857,0.148023583,0.145710101,0.152670151,0.155571805,0.152081978,0.161943681,0.161943681,0.142808447,0.148611756,0.138750052,0.128888349,0.121340126,0.108008201,0.10277346,0.099303238,0.084226399,0.07726635,0.074933263,0.07842309,0.088853361,0.104518373,0.105675114,0.113223336,0.113223336,0.107420028,0.11381151,0.11496825,0.091186448,0.090598275,0.070874868,0.049426153,0.036074621,0.014037733,0.000686202,-0.001039106,-0.011488983,-0.015547378,-0.015547378,-0.019605773,-0.010332242,0.010547906,0.008234424,0.011136079,0.012880993,0.008802992,0.018664695,0.015782647,-0.013802464,-0.007430588,-0.012645723,-0.020762513,-0.027722562,-0.038172439,-0.035270785,-0.029467476,-0.035858958,-0.037015699,-0.034682612,-0.031800563,-0.016135551,-0.000470539,-0.006273847,-0.000470539,-0.000470539,-0.004528933,-0.004528933,-0.014390637,-0.03236913,-0.017292291,-0.0230956,-0.028310736,-0.026565822,-0.030624217,-0.03236913,-0.027722562,-0.029467476,-0.032957304,-0.030055649,-0.025997254,-0.007430588,0.010547906,0.005920943,0.009391165,0.00417603,-0.002215452,0.005920943,0.002431116,-0.016135551,-0.006273847,-0.01497881,-0.024252341,-0.024840514,-0.029467476,-0.025997254,-0.021938859,-0.032957304,-0.037584266,-0.032957304,-0.030055649,-0.010332242,0.012880993,0.01344956,0.022742696,0.02156635,0.019841042,0.030859486,0.024468004,0.008234424,0.016939387,0.008234424,0.003019289,0.003019289,-0.00394076,-0.000470539,0.014606301,0.015782647,0.02156635,0.03376114,0.055209855,0.09465667,0.12308504,0.121340126,0.124241781,0.119026645,0.111478423,0.120183386,0.110321682,0.085951707,0.088853361,0.078991658,0.078991658,0.100459978,0.125986694,0.173550298,0.227505385,0.26926568,0.318574198,0.36670637,0.411956493,0.47634185,0.500123652,0.457775183,0.411956493,0.355119358,0.29769405,0.271010594,0.256502322,0.226917211,0.203135409,0.156728546,0.105106547,0.038976276,-0.055582365,-0.145494438,-0.228426856,-0.300360435,-0.345022385,-0.372862582,-0.390272508,-0.38562594,-0.382155718,-0.393174162,-0.384469199,-0.370549101,-0.348512213,-0.309065398,-0.285283596,-0.267305103,-0.233661597,-0.219741499,-0.199429918,-0.173334635,-0.154767968,-0.132142907,-0.107204364,-0.089794438,-0.06775755,-0.048622316,-0.033525871,-0.001627279,0.029114572,0.04072119,0.053484547,0.053484547,0.052896374,0.065071559,0.055209855,0.039564449,0.043622844,0.036662795,0.036074621,0.043622844,0.043622844,0.048837979,0.053484547,0.048837979,0.049426153,0.056386202,0.058699683,0.070874868,0.080736571,0.075521436,0.073776522,0.05811151,0.044191411,0.049426153,0.035486448,0.020997782,0.029114572,0.019841042,0.014037733,0.01344956,0.005920943,0.005920943,0.00417603,-0.005117107,0.000117635,0.007077684,0.015194474,0.04072119,0.05811151,0.054641288,0.061013164,0.061601337,0.058699683,0.066816473,0.059856424,0.051151461,0.058699683,0.051151461,0.044191411,0.044779584,0.033172967,0.034329708,0.038388103,0.0326044,0.033172967,0.040133016,0.044779584,0.064502992,0.076678176,0.078991658,0.085951707,0.079579831,0.07726635,0.090598275,0.079579831,0.067973213,0.073776522,0.066816473,0.062758078,0.063346251,0.054641288,0.057542942,0.061601337,2,1,20,15,0
-0.036772289,-0.036925012,-0.036925012,-0.037230458,-0.037688627,-0.037994073,-0.038146796,-0.038146796,-0.038299519,-0.03891041,-0.038757687,-0.03891041,-0.039063133,-0.039063133,-0.039368579,-0.039674025,-0.039674025,-0.039674025,-0.039826748,-0.039826748,-0.039674025,-0.039368579,-0.039979471,-0.039674025,-0.039215856,-0.039063133,-0.039063133,-0.03891041,-0.03891041,-0.038452242,-0.038299519,-0.038604964,-0.037994073,-0.037688627,-0.037688627,-0.037535904,-0.037077735,-0.036925012,-0.037383181,-0.037230458,-0.037383181,-0.037383181,-0.037535904,-0.037688627,-0.037688627,-0.038146796,-0.038146796,-0.038146796,-0.03891041,-0.039063133,-0.039215856,-0.039521302,-0.039979471,-0.039674025,-0.039826748,-0.039674025,-0.039826748,-0.039979471,-0.039826748,-0.039826748,-0.039674025,-0.039674025,-0.039368579,-0.039215856,-0.039063133,-0.038757687,-0.039063133,-0.038757687,-0.039063133,-0.03891041,-0.039063133,-0.039368579,-0.039826748,-0.039979471,-0.04043764,-0.041048531,-0.041201254,-0.041812146,-0.042881207,-0.04303393,-0.043797544,-0.044408436,-0.045324774,-0.045782942,-0.046241111,-0.046852003,-0.047615618,-0.048056817,-0.048514986,-0.049278601,-0.04973677,-0.050042216,-0.050194938,-0.05080583,-0.051111276,-0.051111276,-0.051722168,-0.051263999,-0.051263999,-0.051263999,-0.051263999,-0.052027614,-0.051722168,-0.051722168,-0.051569445,-0.051569445,-0.051722168,-0.051416722,-0.051874891,-0.051722168,-0.051569445,-0.052027614,-0.051874891,-0.051416722,-0.051874891,-0.052180337,-0.052180337,-0.05233306,-0.052638505,-0.052485782,-0.052943951,-0.052943951,-0.053249397,-0.053554843,-0.05340212,-0.053554843,-0.053707566,-0.053707566,-0.053707566,-0.053554843,-0.053554843,-0.05340212,-0.053554843,-0.05340212,-0.053554843,-0.053249397,-0.053096674,-0.053096674,-0.053096674,-0.053249397,-0.052638505,-0.052943951,-0.052638505,-0.052791228,-0.052943951,-0.052791228,-0.052943951,-0.053096674,-0.053249397,-0.053249397,-0.053707566,-0.053554843,-0.053860289,-0.054013012,-0.054471181,-0.054318458,-0.054165735,-0.054318458,-0.054776627,-0.054929349,-0.055082072,-0.055082072,-0.054929349,-0.055234795,-0.055082072,-0.055234795,-0.055387518,-0.055234795,-0.055234795,-0.055082072,-0.055082072,-0.054776627,-0.054776627,-0.054776627,-0.054471181,-0.054318458,-0.054013012,-0.053707566,-0.053860289,-0.05340212,-0.053249397,-0.05340212,-0.05340212,-0.053249397,-0.05340212,-0.053096674,-0.053554843,-0.053707566,-0.054013012,-0.054013012,-0.054623904,-0.054929349,-0.055540241,-0.056303856,-0.056151133,-0.056914748,-0.057372916,-0.058136531,-0.058289254,-0.0585947,-0.059358315,-0.059816483,-0.059816483,-0.059816483,-0.060121929,-0.060274652,-0.059969206,-0.059969206,-0.059969206,-0.059052869,-0.058747423,-0.0585947,-0.058441977,-0.057983808,-0.057831085,-0.057525639,-0.056914748,-0.056762025,-0.056609302,-0.056456579,-0.056456579,-0.056151133,-0.056303856,-0.056151133,-0.05599841,-0.056456579,-0.056609302,-0.056456579,-0.056456579,-0.056762025,-0.056914748,-0.057220194,-0.057525639,-0.057525639,-0.057831085,-0.058136531,-0.058136531,-0.058441977,-0.057831085,-0.057831085,-0.058289254,-0.058441977,-0.058136531,-0.058136531,-0.057983808,-0.057678362,-0.057831085,-0.057983808,-0.057678362,-0.057525639,-0.057678362,-0.057525639,-0.057067471,-0.057372916,-0.057220194,-0.057372916,-0.056914748,-0.057372916,-0.057525639,-0.057525639,-0.058136531,-0.058136531,-0.058136531,-0.058289254,-0.058441977,-0.058747423,-0.0585947,-0.058900146,-0.058900146,-0.058900146,-0.058900146,-0.059052869,-0.059205592,-0.0585947,-0.058900146,-0.0585947,-0.058136531,-0.058136531,-0.057831085,-0.057678362,-0.057678362,-0.057372916,-0.057678362,-0.057220194,-0.057220194,-0.056609302,-0.056609302,-0.056303856,-0.05599841,-0.05599841,-0.055692964,-0.055692964,-0.05599841,-0.055845687,-0.055845687,-0.05599841,-0.055845687,-0.05599841,-0.055845687,-0.055540241,-0.055845687,-0.055387518,-0.055540241,-0.055387518,-0.055387518,-0.055082072,-0.054929349,-0.054929349,-0.054776627,-0.054929349,-0.054165735,-0.054013012,-0.053707566,-0.053554843,-0.052943951,-0.052638505,-0.05233306,-0.052180337,-0.051722168,-0.051874891,-0.051263999,-0.05080583,-0.051111276,-0.050653107,-0.050958553,-0.051111276,-0.051111276,-0.050653107,-0.051263999,-0.051263999,-0.05233306,-0.052791228,-0.052943951,-0.053554843,-0.054013012,-0.054929349,-0.055387518,-0.056303856,-0.056762025,-0.057220194,-0.058136531,-0.058747423,-0.059052869,-0.059358315,-0.059358315,-0.059816483,-0.05966376,-0.05966376,-0.059205592,-0.0585947,-0.058441977,-0.057983808,-0.057525639,-0.056914748,-0.056609302,-0.055845687,-0.055234795,-0.055082072,-0.054623904,-0.054165735,-0.053554843,-0.053707566,-0.053249397,-0.05340212,-0.053707566,-0.053860289,-0.053707566,-0.054013012,-0.054471181,-0.054929349,-0.055234795,-0.055692964,-0.056456579,-0.056609302,-0.057220194,-0.057678362,-0.057067471,-0.058441977,-0.058441977,-0.058747423,-0.059511038,-0.059511038,-0.05966376,-0.060274652,-0.060274652,-0.061038267,-0.061343713,-0.061343713,-0.061496436,-0.061649159,-0.062107327,-0.061801882,-0.06226005,-0.06226005,-0.061954605,-0.062107327,-0.061954605,-0.061801882,-0.061649159,-0.061343713,-0.060885544,-0.060580098,-0.060274652,-0.05966376,-0.059358315,-0.0585947,-0.058441977,-0.057678362,-0.057372916,-0.057067471,-0.056609302,-0.056151133,-0.056456579,-0.055845687,-0.055234795,-0.055692964,-0.055692964,-0.05599841,-0.05599841,-0.05599841,-0.056303856,-0.056151133,-0.056609302,-0.056914748,-0.057372916,-0.057831085,-0.057983808,-0.058136531,-0.058136531,-0.0585947,-0.058900146,-0.0585947,-0.058441977,-0.057983808,-0.057525639,-0.056609302,-0.055234795,-0.054165735,-0.05233306,-0.050500384,-0.047921064,-0.045782942,-0.043186653,-0.040284917,-0.037383181,-0.034481445,-0.031426986,-0.028830697,-0.026251376,-0.023196917,-0.02075335,-0.018767952,-0.016782554,-0.015255324,-0.013880818,-0.012659035,-0.011742697,-0.011284528,-0.010979082,-0.010979082,-0.011437251,-0.012353589,-0.013117203,-0.013422649,-0.014338987,-0.015408047,-0.016477108,-0.017393446,-0.018004337,-0.018767952,-0.018767952,-0.019378844,-0.019531567,-0.020142458,-0.019989735,-0.020295181,-0.020447904,-0.02075335,-0.020447904,-0.020906073,-0.020447904,-0.02075335,-0.021211519,-0.021058796,-0.021822411,-0.023044194,-0.023502363,-0.024418701,-0.025793207,-0.027167713,-0.028830697,-0.029747034,-0.031121541,-0.033259662,-0.034634168,-0.036008675,-0.03784135,-0.039521302,-0.040895809,-0.042270315,-0.043950267,-0.045172051,-0.046241111,-0.047462895,-0.048514986,-0.049278601,-0.050194938,-0.050500384,-0.051111276,-0.051722168,-0.051722168,-0.051874891,-0.051874891,-0.052027614,-0.051569445,-0.051874891,-0.052027614,-0.051416722,-0.051874891,-0.051722168,-0.051416722,-0.051416722,-0.051569445,-0.051263999,-0.051416722,-0.051416722,-0.051569445,-0.051263999,-0.051722168,-0.051874891,-0.05233306,-0.052485782,-0.052027614,-0.052791228,-0.052638505,-0.053554843,-0.053554843,-0.053707566,-0.054013012,-0.054318458,-0.054318458,-0.054776627,-0.054776627,-0.055082072,-0.055387518,-0.055540241,-0.05599841,-0.056456579,-0.056914748,-0.057067471,-0.057067471,-0.057525639,-0.057983808,-0.058136531,-0.0585947,-0.058289254,-0.058747423,-0.058900146,-0.059052869,-0.059205592,-0.059052869,-0.059205592,-0.059052869,-0.058747423,-0.058289254,-0.058136531,-0.058136531,-0.057067471,-0.056914748,-0.05599841,-0.055540241,-0.055387518,-0.054776627,-0.054623904,-0.054013012,-0.054165735,-0.053707566,-0.053249397,-0.053554843,-0.053707566,-0.053707566,-0.053707566,-0.054165735,-0.054623904,-0.055082072,-0.055540241,-0.055692964,-0.055845687,-0.056609302,-0.056762025,-0.057372916,-0.057372916,-0.057678362,-0.057831085,-0.057831085,-0.058136531,-0.058136531,-0.057831085,-0.057525639,-0.057372916,-0.057220194,-0.056914748,-0.056151133,-0.056609302,-0.056303856,-0.056151133,-0.05599841,-0.05599841,-0.056303856,-0.056914748,-0.057372916,-0.058289254,-0.059969206,-0.061343713,-0.06378728,-0.066078124,-0.068810167,-0.07155918,-0.074460916,-0.077515375,-0.079500773,-0.081638894,-0.083166123,-0.084082461,-0.083777015,-0.082249786,-0.07934805,-0.075071808,-0.06896289,-0.059969206,-0.048820432,-0.034786891,-0.018615229,0.001221783,0.024265978,0.050347661,0.07934805,0.110622314,0.145103759,0.180671234,0.217443523,0.25513215,0.292362608,0.330356681,0.367434416,0.403748536,0.439299042,0.471947812,0.501864538,0.528098945,0.549921356,0.566551187,0.578921744,0.585166416,0.586082753,0.580907143,0.570521983,0.555113936,0.534360585,0.509025547,0.480042128,0.446782466,0.410315623,0.370488875,0.328676728,0.284879184,0.239113211,0.192566654,0.145867374,0.09903234,0.053249397,0.009316099,-0.033259662,-0.07415547,-0.111538651,-0.146936434,-0.178991281,-0.208127424,-0.234226077,-0.258033886,-0.278464821,-0.29663885,-0.31219962,-0.325164101,-0.336143183,-0.34484839,-0.352179091,-0.357507425,-0.361172775,-0.363769065,-0.365143572,-0.365601741,-0.364990849,-0.364379957,-0.363005451,-0.361478221,-0.359645546,-0.357965594,-0.355827473,-0.354469935,-0.35263726,-0.350499139,-0.348513741,-0.34637562,-0.344237499,-0.341641209,-0.339503088,-0.336754075,-0.333869308,-0.331120295,-0.327607668,-0.324247763,-0.320735136,-0.31632314,-0.311436006,-0.306243426,-0.300592677,-0.294195283,-0.287475474,-0.280144773,-0.272067427,-0.263514942,-0.254368535,-0.244594267,-0.234226077,-0.223688194,-0.21209822,-0.200508246,-0.188443134,-0.176242269,-0.163566265,-0.151518122,-0.139928148,-0.128168482,-0.116731231,-0.10573518,-0.095519712,-0.086220582,-0.077209929,-0.06896289,-0.061801882,-0.054929349,-0.048514986,-0.043186653,-0.038146796,-0.034023276,-0.030663372,-0.027320436,-0.024418701,-0.021822411,-0.019378844,-0.017240723,-0.015255324,-0.013422649,-0.011742697,-0.009468822,-0.00778887,-0.006108917,-0.004581688,-0.003054459,-0.001069061,0.000152723,0.001374506,0.002901736,0.004123519,0.005650749,0.00626164,0.007483424,0.008399762,0.009316099,0.01036819,0.010979082,0.011589974,0.012353589,0.013422649,0.014186264,0.015102601,0.015866216,0.016935277,0.017698891,0.018920675,0.01968429,0.020447904,0.021364242,0.021975134,0.023196917,0.023502363,0.024876869,0.025182315,0.025793207,0.027014991,0.027625882,0.028389497,0.029441588,0.030357926,0.030968818,0.032037878,0.032954216,0.033717831,0.034481445,0.035550506,0.036466843,0.037383181,0.038146796,0.039521302,0.040284917,0.040895809,0.041964869,0.04303393,0.044255713,0.045019328,0.045782942,0.046546557,0.047157449,0.048056817,0.048820432,0.049584047,0.050500384,0.05080583,0.052027614,0.05233306,0.052638505,0.053707566,0.054623904,0.055082072,0.055692964,0.056609302,0.057525639,0.057983808,0.058900146,0.059205592,0.060121929,0.060885544,0.061801882,0.062870942,0.063481834,0.064550894,0.065161786,0.066078124,0.067435661,0.068351999,0.069879228,0.071101012,0.072322795,0.073544578,0.075071808,0.07675176,0.07827899,0.080264388,0.081791617,0.083318846,0.084998799,0.086814505,0.088952626,0.090327132,0.092617976,0.094603375,0.096130604,0.097963279,0.1001014,0.101934075,0.103766751,0.105446703,0.107567855,0.109095084,0.111080482,0.112913158,0.114745833,0.116425785,0.117953015,0.119327521,0.12085475,0.122687426,0.124367378,0.126030361,0.127710313,0.129695711,0.131528387,0.133513785,0.135499183,0.13794275,0.139469979,0.141760823,0.143881975,0.146630988,0.148921832,0.151518122,0.153961689,0.157016148,0.159612438,0.162514174,0.165246217,0.168300676,0.171355135,0.174104148,0.177769498,0.181129403,0.183861446,0.187374074,0.190581255,0.193635714,4,1,21,15,1
0.886547166,0.736242096,0.579697352,0.420980569,0.261987345,0.106982773,-0.040873817,-0.178699538,-0.306099474,-0.418532089,-0.515444501,-0.596757728,-0.660852612,-0.708755935,-0.740033291,-0.753934338,-0.753026031,-0.743548044,-0.723723256,-0.695170821,-0.660536679,-0.622111342,-0.581513966,-0.539850317,-0.497278361,-0.457312851,-0.419163955,-0.385596086,-0.355385004,-0.329754948,-0.307916088,-0.287775366,-0.271307365,-0.260486663,-0.252390883,-0.246269684,-0.240938316,-0.23710763,-0.234975083,-0.234540675,-0.234698642,-0.234382709,-0.233316435,-0.233474402,-0.232842536,-0.232092195,-0.231934229,-0.232526603,-0.233158469,-0.232842536,-0.233000503,-0.232526603,-0.23023609,-0.228419476,-0.229169816,-0.228103543,-0.226879303,-0.225813029,-0.224746756,-0.223996415,-0.222772175,-0.220955561,-0.219099456,-0.218191149,-0.217124875,-0.216532501,-0.215150295,-0.211477575,-0.211635541,-0.210727234,-0.209345028,-0.206620107,-0.205079934,-0.204329593,-0.204171627,-0.203105353,-0.200972806,-0.199748566,-0.198840259,-0.196984154,-0.195483472,-0.195325506,-0.19469364,-0.193785333,-0.193627367,-0.192403127,-0.189836172,-0.1878221,-0.187545659,-0.186913793,-0.185689553,-0.185097179,-0.184188872,-0.183714972,-0.183122598,-0.182490733,-0.181108526,-0.179884286,-0.178699538,-0.178383605,-0.176843432,-0.176843432,-0.176093092,-0.172894271,-0.170603758,-0.170445791,-0.169221551,-0.167089004,-0.164640525,-0.162350011,-0.160217464,-0.159467124,-0.156860677,-0.153819823,-0.151687276,-0.148922864,-0.146316417,-0.144499803,-0.143117597,-0.141458949,-0.13976081,-0.137628263,-0.134587409,-0.131072656,-0.129414008,-0.128189768,-0.125899255,-0.124359082,-0.122818909,-0.120844328,-0.119027714,-0.117645508,-0.115354995,-0.112906515,-0.110616001,-0.108167521,-0.106192941,-0.104810735,-0.102401746,-0.098886993,-0.094621899,-0.092765793,-0.090791213,-0.087908325,-0.084551538,-0.080246953,-0.076890166,-0.074165245,-0.070808458,-0.066227431,-0.061488438,-0.057065377,-0.052049943,-0.048377223,-0.044546537,-0.040873817,-0.036608723,-0.030527015,-0.024721748,-0.019390381,-0.015125287,-0.009754428,-0.004265094,0.000592374,0.006239674,0.011452567,0.017257834,0.023813441,0.029895149,0.035858382,0.041663649,0.047903324,0.053550624,0.059948265,0.068044045,0.076613725,0.08360374,0.090949179,0.099321401,0.108049047,0.117487542,0.126491629,0.134903342,0.143749463,0.153187958,0.163100352,0.174118511,0.184465313,0.195601947,0.206738581,0.217282841,0.227827102,0.238805769,0.250416303,0.263211585,0.276322799,0.2876174,0.299820308,0.312655081,0.324857989,0.337060896,0.349421771,0.361940611,0.375209792,0.388202532,0.400523915,0.412884789,0.424969222,0.437014163,0.448743171,0.462051844,0.474531193,0.484601554,0.496054121,0.507506688,0.519275188,0.530411822,0.54091659,0.550394577,0.560306971,0.57081174,0.580605659,0.590360087,0.600114515,0.608960635,0.617372348,0.624678296,0.63186577,0.639803583,0.646517157,0.654454971,0.661602952,0.667408219,0.671989246,0.676728239,0.680558925,0.683915712,0.6867986,0.68802284,0.689839454,0.69047132,0.689681487,0.687114533,0.684192154,0.679334685,0.673845352,0.669264325,0.662076852,0.652322424,0.641778164,0.631115429,0.619030996,0.605485374,0.59067602,0.575392766,0.557384592,0.539257943,0.521407735,0.50217532,0.482626973,0.462328285,0.44159519,0.419598363,0.397167128,0.375367759,0.353528898,0.331729529,0.311272875,0.290974187,0.269609226,0.248402231,0.228893375,0.208752654,0.189520239,0.170880199,0.15227965,0.134745375,0.117961441,0.10224378,0.085617812,0.070176592,0.05493283,0.040755342,0.028986842,0.016033594,0.002882888,-0.008846121,-0.019666822,-0.029895149,-0.040123476,-0.050825703,-0.060264198,-0.069426251,-0.077206099,-0.084670013,-0.092015453,-0.099163434,-0.105758533,-0.112472107,-0.119304156,-0.125583322,-0.131230622,-0.136561989,-0.140550642,-0.143117597,-0.147382691,-0.152121684,-0.154886097,-0.158084917,-0.161283738,-0.164640525,-0.166773072,-0.169221551,-0.170761724,-0.171512065,-0.173328679,-0.174552919,-0.175777159,-0.177475298,-0.179133946,-0.178067672,-0.178975979,-0.180674118,-0.181740392,-0.181898358,-0.182056325,-0.183122598,-0.184781246,-0.185689553,-0.185847519,-0.186321419,-0.186163452,-0.186479385,-0.188138033,-0.189678206,-0.190744479,-0.191968719,-0.19224516,-0.191810753,-0.191336853,-0.192403127,-0.192877026,-0.1934694,-0.193311434,-0.193785333,-0.193627367,-0.1939433,-0.193627367,-0.19224516,-0.192403127,-0.192403127,-0.191810753,-0.19224516,-0.192561093,-0.192877026,-0.191336853,-0.190586513,-0.191968719,-0.19224516,-0.192403127,-0.192403127,-0.191652786,-0.192403127,-0.192561093,-0.1939433,-0.194377707,-0.1939433,-0.194259233,-0.193311434,-0.1934694,-0.194101266,-0.19516754,-0.195759914,-0.196075847,-0.194535674,-0.193627367,-0.194377707,-0.193785333,-0.193785333,-0.1934694,-0.1934694,-0.1939433,-0.193311434,-0.193627367,-0.193311434,-0.1934694,-0.194101266,-0.195325506,-0.196668221,-0.196668221,-0.195325506,-0.196391779,-0.198050427,-0.198524326,-0.198682293,-0.198682293,-0.199116701,-0.199748566,-0.200656873,-0.20156518,-0.200972806,-0.200656873,-0.200025008,-0.199432634,-0.198840259,-0.199274667,-0.199906533,-0.200182974,-0.200025008,-0.1995906,-0.197734494,-0.196391779,-0.196549746,-0.196984154,-0.196075847,-0.196075847,-0.195483472,-0.196075847,-0.195601947,-0.195009573,-0.19469364,-0.19469364,-0.195325506,-0.196391779,-0.197616019,-0.196075847,-0.195009573,-0.196549746,-0.197300087,-0.197300087,-0.196826187,-0.196391779,-0.196826187,-0.19836636,-0.1995906,-0.199748566,-0.199116701,-0.1995906,-0.1995906,-0.1995906,-0.200025008,-0.20081484,-0.20156518,-0.20203908,-0.20203908,-0.201091281,-0.199432634,-0.199432634,-0.200025008,-0.200340941,-0.200182974,-0.200340941,-0.200656873,-0.20081484,-0.201249248,-0.200656873,-0.200656873,-0.200498907,-0.20081484,-0.201091281,-0.202473488,-0.202315521,-0.20081484,-0.201091281,-0.202197046,-0.201723147,-0.200972806,-0.200656873,-0.201407214,-0.20203908,-0.20203908,-0.201249248,-0.200972806,-0.200656873,-0.199748566,-0.200182974,-0.201249248,-0.201723147,-0.202315521,-0.203105353,-0.202473488,-0.20203908,-0.20326332,-0.204171627,-0.204448068,-0.205079934,-0.205672308,-0.206738581,-0.207844347,-0.208594687,-0.208594687,-0.209187061,-0.210253335,-0.210727234,-0.212385882,-0.213768088,-0.212859781,-0.211793508,-0.212859781,-0.214399954,-0.21455792,-0.214241987,-0.214241987,-0.214834362,-0.215308261,-0.216808942,-0.216966909,-0.216374534,-0.216374534,-0.216058602,-0.215900635,-0.216374534,-0.217598774,-0.218033182,-0.218665048,-0.216808942,-0.215466227,-0.216058602,-0.216216568,-0.215742669,-0.215742669,-0.215466227,-0.215624194,-0.215466227,-0.215466227,-0.214834362,-0.21455792,-0.214676395,-0.215308261,-0.215624194,-0.216966909,-0.217756741,-0.215900635,-0.215900635,-0.218033182,-0.219099456,-0.219415388,-0.219257422,-0.219889288,-0.220639628,-0.221705902,-0.222614209,-0.222614209,-0.222614209,-0.222772175,-0.222614209,-0.221863868,-0.222614209,-0.223522516,-0.224154382,-0.224746756,-0.223838449,-0.221863868,-0.220955561,-0.220797595,-0.219415388,-0.218191149,-0.216808942,-0.215900635,-0.214084021,-0.211043167,-0.209187061,-0.207054514,-0.204606034,-0.203381795,-0.201091281,-0.196826187,-0.19271906,-0.190586513,-0.188453966,-0.185413112,-0.182056325,-0.178225639,-0.174710885,-0.172104439,-0.169537484,-0.167246971,-0.164166625,-0.160375431,-0.156702711,-0.152595583,-0.148448964,-0.14418387,-0.140076743,-0.136127582,-0.13166503,-0.126491629,-0.120528396,-0.113814822,-0.107259214,-0.102085813,-0.097504787,-0.092015453,-0.087118493,-0.082103058,-0.077522032,-0.073375412,-0.069110319,-0.064845225,-0.061646404,-0.059948265,-0.058447584,-0.059039958,-0.057223344,-0.056907411,-0.058763517,-0.060264198,-0.061172505,-0.062238778,-0.06425285,-0.066661839,-0.069900151,-0.072625072,-0.075231518,-0.077522032,-0.079654579,-0.083169332,-0.086210186,-0.090040872,-0.094740374,-0.099321401,-0.10421836,-0.109865661,-0.113972788,-0.118869748,-0.125741288,-0.133047236,-0.139010469,-0.146474384,-0.15397779,-0.161283738,-0.168313244,-0.175777159,-0.181740392,-0.187545659,-0.193034993,-0.198840259,-0.204329593,-0.209345028,-0.212385882,-0.214084021,-0.217282841,-0.220639628,-0.222021835,-0.222456242,-0.222772175,-0.223522516,-0.224154382,-0.224628281,-0.223680482,-0.223088108,-0.222930142,-0.221705902,-0.221547935,-0.222614209,-0.223680482,-0.224746756,-0.225970996,-0.226286929,-0.225536588,-0.225970996,-0.228419476,-0.228735409,-0.229485749,-0.230394056,-0.230867956,-0.231341855,-0.232092195,-0.231934229,-0.231183888,-0.230552023,-0.230709989,-0.23023609,-0.230394056,-0.230709989,-0.228893375,-0.226128962,-0.226879303,-0.226760828,-0.225813029,-0.223680482,-0.222930142,-0.222456242,-0.222614209,-0.222021835,-0.220797595,-0.220481662,-0.219573355,-0.220047254,-0.221547935,-0.222614209,-0.224628281,-0.226760828,-0.227827102,-0.229959648,-0.233474402,-0.23833187,-0.242162556,-0.246269684,-0.251166643,-0.255273771,-0.258946491,-0.261237004,-0.261394971,-0.259104457,-0.253891565,-0.244611036,-0.230552023,-0.209818927,-0.180674118,-0.141616916,-0.095964614,-0.042887889,0.021206995,0.09489834,0.177909706,0.269609226,0.367903844,0.473188478,0.584278379,0.699909815,0.819253462,0.93887355,1.056677025,1.169899472,1.275618514,1.370556346,1.452185505,1.518847344,1.567224566,1.596369375,1.602924982,1.585232741,1.546649437,1.486503714,1.405348455,1.306145529,1.190790534,1.061100085,0.921023342,0.771626579,0.616464041,0.458379124,0.301202514,0.146948283,-0.001066273,-0.138378604,-0.263961925,-0.378250646,-0.476545265,-0.558016458,-0.621479476,-0.667724152,-0.699159474,-0.716101375,-0.719616128,-0.709980175,-0.689563013,-0.661168545,-0.626376436,-0.587161266,-0.545971516,-0.505058208,-0.464184391,-0.424653289,-0.387096767,-0.351554318,-0.320118995,-0.294173007,-0.272215672,-0.25377309,-0.238805769,-0.227511169,-0.219099456,-0.213452155,-0.208594687,-0.205988241,-0.205079934,-0.205079934,-0.206304174,-0.207054514,-0.205553833,-0.206304174,-0.208120788,-0.20891062,-0.20891062,-0.209029095,-0.208120788,-0.208752654,-0.209029095,-0.208752654,-0.207844347,-0.205988241,-0.204606034,-0.20278942,-0.201249248,-0.199906533,-0.198840259,-0.198208394,-0.196826187,-0.19516754,-0.192561093,-0.189520239,-0.188611932,-0.187545659,-0.185847519,-0.184307347,-0.182490733,-0.181108526,-0.179449879,-0.177317332,-0.175184785,-0.173328679,-0.171827998,-0.170761724,-0.169971892,-0.169695451,-0.167089004,-0.164324592,-0.164482558,-0.162981877,-0.161599671,-0.15962509,-0.158242884,-0.157611018,-0.157768984,-0.156544744,-0.155478471,-0.15397779,-0.15275355,-0.151371343,-0.150621003,-0.149989137,-0.149831171,-0.148764897,-0.148330489,-0.14663235,-0.143907429,-0.142367256,-0.142367256,-0.141300983,-0.139918776,-0.138378604,-0.13731233,-0.136561989,-0.13533775,-0.133955543,-0.132454862,-0.130322315,-0.128940109,-0.127873835,-0.126807562,-0.125741288,-0.125267389,-0.123134842,-0.120093988,-0.119462122,-0.118553815,-0.116895167,-0.114881095,-0.112590582,-0.110773968,-0.108799387,-0.108049047,-0.105126667,-0.101927847,-0.0997953,-0.09659648,-0.094305966,-0.09244986,-0.090633246,-0.088184766,-0.084985946,-0.080088986,-0.077048132,-0.075389485,-0.071716765,-0.068517944,-0.065911498,-0.062396745,-0.059948265,-0.056907411,-0.05370859,-0.049877904,-0.047152983,-0.043954163,-0.040873817,-0.038622795,-0.036174315,-0.032027696,-0.026696329,-0.024721748,-0.021680894,-0.018166141,-0.014177488,-0.009477987,-0.004738993,-0.00122424,0.002764413,0.007621881,0.013111215,2,1,30,20,0
0.069151567,0.068567023,0.078971908,0.082479172,0.08072554,0.078971908,0.077861274,0.077861274,0.076692186,0.073184921,0.073769465,0.074354009,0.072015833,0.069736111,0.070320655,0.070320655,0.072600377,0.069151567,0.068567023,0.071431289,0.075523097,0.078971908,0.089435247,0.088850703,0.085401893,0.081894628,0.078971908,0.07727673,0.073769465,0.073769465,0.075523097,0.078971908,0.082479172,0.077861274,0.07727673,0.078445818,0.078445818,0.077861274,0.079556452,0.081310084,0.081310084,0.078971908,0.090019791,0.091773423,0.089435247,0.086512526,0.084817349,0.084232804,0.08072554,0.081894628,0.085986437,0.089435247,0.088850703,0.083063716,0.079556452,0.08072554,0.081894628,0.08072554,0.082479172,0.085986437,0.084817349,0.08364826,0.094637689,0.096391322,0.090019791,0.084817349,0.085986437,0.085986437,0.084232804,0.083063716,0.084232804,0.085986437,0.084817349,0.081310084,0.080140996,0.080140996,0.080140996,0.079556452,0.08364826,0.085401893,0.085986437,0.085986437,0.094053145,0.091773423,0.085401893,0.082479172,0.081310084,0.078445818,0.07727673,0.078971908,0.08072554,0.079556452,0.07727673,0.073184921,0.071431289,0.072600377,0.070905199,0.069151567,0.074354009,0.074354009,0.073769465,0.075523097,0.087097071,0.083063716,0.076107642,0.073184921,0.072600377,0.072600377,0.067397934,0.064475214,0.062780036,0.065644302,0.070905199,0.069151567,0.069151567,0.070320655,0.069736111,0.069151567,0.073769465,0.078971908,0.081310084,0.082479172,0.094053145,0.093527056,0.091188879,0.091773423,0.091188879,0.094053145,0.093527056,0.093527056,0.096975866,0.102762852,0.103931941,0.105685573,0.107439205,0.109718927,0.11439528,0.116148912,0.123689531,0.128307429,0.130061062,0.135263504,0.147422021,0.143973211,0.139355313,0.135263504,0.134094416,0.131814694,0.128891974,0.132925328,0.141050491,0.147422021,0.15151383,0.153852006,0.161392625,0.175304775,0.183429938,0.187463292,0.192665735,0.18863238,0.187463292,0.184599026,0.188047836,0.184014482,0.179922673,0.179338129,0.177584497,0.174720231,0.167179612,0.161977169,0.162503259,0.16542598,0.1683487,0.167764156,0.167179612,0.167179612,0.169517788,0.171212966,0.169517788,0.166010524,0.166010524,0.167764156,0.180507217,0.177058407,0.167764156,0.157300817,0.146895932,0.138770769,0.13123015,0.126553797,0.120766811,0.119013178,0.120766811,0.115564368,0.106270117,0.096975866,0.085401893,0.075523097,0.072600377,0.067982479,0.064475214,0.06044186,0.066228846,0.062195492,0.055823961,0.04997852,0.047698798,0.045945166,0.043022446,0.04015818,0.038404547,0.038404547,0.033728194,0.027941208,0.022738765,0.022154221,0.022738765,0.019231501,0.016951779,0.017536323,0.015782691,0.018646957,0.026187576,0.022738765,0.018646957,0.019231501,0.019231501,0.015198147,0.010580248,0.012275426,0.014613602,0.011690882,0.007657528,0.004150263,0.004150263,0.005903895,0.005903895,0.007072984,0.009995704,0.008826616,0.005319351,0.007072984,0.015782691,0.012275426,0.008826616,0.005319351,0.003039629,0.000116909,-0.002805812,-0.001636723,0.001870541,0.001285997,-0.001052179,-0.005085534,-0.005670078,-0.003390356,-0.002221268,-0.001052179,0.003565719,0.005319351,0.005319351,0.00941116,0.018646957,0.01285997,0.008826616,0.004150263,0.000701453,-0.001052179,-0.001052179,-0.001052179,0.000116909,0.003039629,0.000116909,-0.00450099,-0.005670078,-0.001636723,-0.001636723,-0.002805812,0.002455085,0.002455085,0.002455085,0.004734807,0.014029058,0.009995704,0.007657528,0.004150263,0.000701453,0.000116909,-0.003390356,-0.001052179,-0.000467635,0.000701453,0.001285997,-0.001636723,-0.0039749,-0.002805812,-0.006254622,-0.013210697,-0.014964329,-0.014379785,-0.015548873,-0.013210697,-0.000467635,0.007657528,0.017536323,0.033202105,0.055239417,0.069151567,0.078445818,0.099314042,0.125969253,0.152682918,0.182845394,0.211838781,0.246619155,0.288998602,0.335995947,0.389306369,0.449689774,0.518665978,0.596410343,0.678772606,0.773351841,0.855714104,0.927613028,0.994367964,1.062818078,1.131209738,1.196211041,1.25770508,1.290205732,1.27453995,1.214214999,1.14979824,1.097013908,1.037273501,0.956080326,0.849927118,0.719982965,0.575542118,0.431101272,0.30407984,0.20254453,0.099898586,-0.008008254,-0.112992374,-0.199446446,-0.257433221,-0.297474491,-0.324129702,-0.34213366,-0.346751559,-0.347920647,-0.349674279,-0.344471837,-0.335177586,-0.325883334,-0.313724817,-0.295720859,-0.282977798,-0.266727472,-0.241182895,-0.211604963,-0.198277358,-0.18664493,-0.171563693,-0.154787277,-0.138536951,-0.125735435,-0.114746006,-0.104867211,-0.090370517,-0.080491722,-0.071255925,-0.051498335,-0.032383743,-0.013210697,0.008242072,0.023907854,0.036066371,0.047114254,0.058103683,0.070905199,0.070320655,0.068567023,0.069736111,0.070320655,0.067397934,0.059857316,0.059857316,0.059857316,0.058103683,0.056350051,0.052316697,0.050563064,0.055239417,0.056934595,0.056350051,0.056934595,0.055823961,0.059272771,0.066228846,0.074354009,0.073769465,0.076107642,0.078445818,0.077861274,0.074938553,0.073184921,0.076107642,0.081310084,0.084817349,0.081310084,0.07727673,0.078445818,0.08072554,0.082479172,0.085401893,0.089435247,0.089435247,0.089435247,0.09756041,0.110888015,0.108608293,0.107439205,0.106270117,0.108608293,0.109718927,0.108608293,0.109718927,0.110888015,0.111472559,0.108608293,0.106270117,0.104516485,0.107439205,0.110303471,0.116148912,0.119597722,0.117259546,0.120182266,0.127138341,0.135263504,0.132925328,0.132340784,0.135263504,0.132925328,0.132925328,0.132925328,0.135848048,0.136432592,0.140465947,0.141635035,0.140465947,0.139355313,0.143388667,0.143388667,0.146895932,0.153852006,0.156716273,0.156716273,0.164256891,0.177058407,0.174135687,0.171212966,0.171212966,0.172966598,0.173551143,0.171212966,0.172382054,0.175304775,0.181676306,0.184599026,0.18570966,0.188047836,0.184599026,0.184599026,0.191555101,0.197342087,0.201959986,0.209500605,0.218794856,0.227504563,0.228673651,0.225166386,0.221717576,0.223997298,0.232122461,0.23966308,0.247203699,0.252464596,0.258251582,0.260589759,0.261115848,0.265792201,0.27333282,0.27333282,0.275670996,0.283211615,0.288414058,0.290752234,0.302326207,0.314484724,0.315069269,0.316822901,0.322025343,0.327870784,0.330150506,0.334242315,0.342952022,0.349908097,0.353941451,0.356279627,0.360897526,0.365573879,0.373114497,0.378901484,0.385857559,0.393398178,0.39860062,0.403861517,0.41543549,0.428178551,0.42934764,0.434023992,0.439226435,0.443844333,0.443259789,0.443844333,0.445013421,0.449689774,0.456061305,0.458341027,0.460094659,0.46301738,0.471727087,0.475760441,0.479267706,0.487392869,0.494348943,0.496044121,0.502474106,0.510540815,0.508845637,0.507676549,0.508261093,0.510014725,0.511709903,0.510014725,0.508845637,0.510014725,0.511709903,0.508261093,0.504169284,0.499551386,0.495459577,0.489672591,0.485054692,0.480378339,0.475760441,0.467635278,0.465881646,0.464186468,0.453138584,0.440395523,0.428763096,0.419527299,0.407894871,0.396320898,0.385273015,0.374809675,0.36440479,0.348154465,0.334242315,0.323778976,0.315653813,0.302326207,0.291862868,0.283737705,0.272163732,0.257082494,0.254159774,0.250126419,0.234460638,0.221717576,0.212423325,0.201959986,0.190970557,0.178753585,0.167764156,0.156716273,0.148006566,0.138770769,0.125969253,0.115564368,0.108608293,0.101067674,0.095222233,0.090019791,0.081894628,0.07727673,0.08072554,0.080140996,0.069736111,0.061610948,0.054654873,0.04652971,0.039573635,0.034312739,0.032033017,0.030863928,0.027941208,0.020400589,0.014029058,0.011690882,0.00941116,0.005903895,0.007657528,0.007657528,0.003039629,0.001285997,0.006488439,0.008242072,0.003039629,-0.002221268,-0.006254622,-0.00742371,-0.010930975,-0.010346431,-0.010346431,-0.012626153,-0.012626153,-0.016133417,-0.02133586,-0.023089492,-0.022504948,-0.02425858,-0.025427668,-0.02133586,-0.022504948,-0.023674036,-0.015548873,-0.012041608,-0.016133417,-0.018471593,-0.021920404,-0.023089492,-0.024843124,-0.027122846,-0.02425858,-0.021920404,-0.020166771,-0.02425858,-0.025427668,-0.027122846,-0.02425858,-0.023089492,-0.02425858,-0.02425858,-0.023674036,-0.024843124,-0.014964329,-0.009177342,-0.012041608,-0.016717961,-0.020751315,-0.023089492,-0.026596756,-0.02770739,-0.027122846,-0.025427668,-0.026012212,-0.033552831,-0.033552831,-0.031214655,-0.028291934,-0.028291934,-0.025427668,-0.022504948,-0.02133586,-0.019056138,-0.009177342,-0.00742371,-0.012041608,-0.014964329,-0.019056138,-0.018471593,-0.02133586,-0.024843124,-0.023089492,-0.02133586,-0.019582227,-0.021920404,-0.022504948,-0.023674036,-0.023674036,-0.025427668,-0.022504948,-0.017887049,-0.017302505,-0.02133586,-0.013795241,-0.008008254,-0.012626153,-0.013210697,-0.011515519,-0.010930975,-0.012626153,-0.012041608,-0.012041608,-0.013210697,-0.012041608,-0.015548873,-0.017302505,-0.013210697,-0.009761886,-0.012041608,-0.010346431,-0.013210697,-0.015548873,-0.015548873,-0.005670078,-0.002221268,-0.006839166,-0.012041608,-0.014379785,-0.014964329,-0.016133417,-0.015548873,-0.013795241,-0.010346431,-0.008592798,-0.013795241,-0.017302505,-0.015548873,-0.012041608,-0.012626153,-0.011515519,-0.010930975,-0.012626153,-0.012626153,-0.005085534,-0.002221268,-0.006254622,-0.010346431,-0.010346431,-0.011515519,-0.014964329,-0.016133417,-0.016133417,-0.014964329,-0.012626153,-0.014964329,-0.017302505,-0.016133417,-0.013210697,-0.013795241,-0.012041608,-0.014964329,-0.019582227,-0.018471593,-0.008008254,-0.00450099,-0.00742371,-0.011515519,-0.016133417,-0.019056138,-0.021920404,-0.020166771,-0.016133417,-0.013795241,-0.012626153,-0.013210697,-0.012626153,-0.008592798,-0.0039749,-0.002805812,0.000701453,0.001870541,0.001285997,0.001285997,0.011106338,0.016367235,0.012275426,0.007657528,0.010580248,0.013444514,0.013444514,0.016951779,0.023323309,0.026187576,0.027941208,0.02677212,0.028525752,0.02969484,0.031448472,0.032617561,0.034312739,0.034897283,0.034312739,0.034312739,0.044776078,0.048809432,0.049393976,0.052901241,0.054070329,0.058688227,0.06336458,0.069151567,0.075523097,0.08072554,0.084232804,0.079556452,0.075523097,0.074354009,0.071431289,0.06389067,0.064475214,0.067397934,0.067397934,0.064475214,0.070905199,0.073184921,0.072600377,0.072015833,0.070905199,0.072600377,0.073184921,0.071431289,0.071431289,0.072600377,0.070320655,0.065059758,0.062780036,0.061026404,0.061610948,0.056934595,0.055239417,0.053485785,0.047698798,0.043022446,0.044776078,0.041268813,0.036650915,0.031448472,0.029110296,0.022154221,0.011690882,0.003565719,-0.006254622,-0.012041608,-0.016717961,-0.02770739,-0.037001641,-0.040508906,-0.04454226,-0.048634069,-0.051498335,-0.0550056,-0.056174688,-0.056759232,-0.048634069,-0.050913791,-0.05845441,-0.063715307,-0.067164117,-0.070086837,-0.073535647,-0.074704736,-0.075873824,-0.07528928,-0.075873824,-0.083414443,-0.086921707,-0.085752619,-0.085752619,-0.086921707,-0.083414443,-0.084583531,-0.085168075,-0.08166081,-0.068917749,-0.067748661,-0.075873824,-0.078212,-0.078212,-0.079965633,-0.084583531,-0.084583531,-0.083414443,-0.082245355,-0.083998987,-0.088616885,-0.090370517,-0.090955062,-0.090370517,-0.090370517,-0.090370517,-0.091539606,-0.090955062,-0.090370517,3,1,25,20,0
-0.011489788,-0.015600813,-0.016760333,-0.017919853,-0.015600813,-0.017287388,-0.012122254,-0.011489788,-0.012649308,-0.009697803,-0.002213629,-0.002740683,-0.004532669,-0.009697803,-0.008011228,-0.009170748,-0.016760333,-0.019606428,-0.019079373,-0.019079373,-0.017919853,-0.021398413,-0.024244507,-0.023084987,-0.016760333,-0.017287388,-0.012649308,-0.013808828,-0.020238893,-0.020765947,-0.009170748,-0.004532669,-0.005692189,-0.012122254,-0.010857323,-0.009697803,-0.014441293,-0.015600813,-0.012649308,-0.013281773,-0.013808828,-0.020238893,-0.020765947,-0.018446908,-0.016127868,-0.020765947,-0.019079373,-0.022557933,-0.026563547,-0.023717453,-0.014441293,-0.011489788,-0.013808828,-0.019079373,-0.014968348,-0.013808828,-0.018446908,-0.019079373,-0.014441293,-0.014968348,-0.015600813,-0.020765947,-0.021925467,-0.017287388,-0.013281773,-0.019079373,-0.015600813,-0.014968348,-0.017919853,-0.019079373,-0.012649308,-0.010857323,-0.011489788,-0.015600813,-0.014968348,-0.012649308,-0.016127868,-0.014968348,-0.011489788,-0.012122254,-0.013808828,-0.019606428,-0.020238893,-0.016127868,-0.013281773,-0.018446908,-0.017287388,-0.017919853,-0.019079373,-0.017919853,-0.010857323,-0.011489788,-0.014968348,-0.017287388,-0.014968348,-0.013281773,-0.015600813,-0.013808828,-0.009697803,-0.008538283,-0.006219243,-0.009697803,-0.012649308,-0.010857323,-0.008538283,-0.012122254,-0.008011228,-0.009697803,-0.012122254,-0.013281773,-0.007378763,-0.008011228,-0.009170748,-0.012122254,-0.009170748,-0.005059723,-0.007378763,-0.005692189,-0.003900203,-0.006851709,-0.006851709,-0.012649308,-0.012122254,-0.007378763,-0.003900203,-0.005692189,-0.001054109,-0.005059723,-0.010330268,-0.006851709,0.003056916,0.004743491,0.000105411,-0.004532669,-0.003373149,-0.004532669,-0.006219243,-0.003900203,-0.001054109,-0.001054109,0.000737876,-0.003900203,-0.006219243,-0.003373149,-0.001054109,-0.005059723,0.000737876,-0.002740683,-0.006851709,-0.006851709,0.001897396,0.005375956,0.003056916,0.002424451,0.004216436,0.005375956,-0.000421644,0.000737876,0.001897396,-0.001054109,-0.000421644,-0.003900203,-0.003900203,0.000105411,0.002424451,0.000737876,0.005375956,0.002424451,-0.001054109,-0.000421644,0.00706253,0.007694996,0.00706253,0.007694996,0.00938157,0.010014036,0.00590301,0.004743491,0.00590301,0.007694996,0.01170061,0.007694996,0.00590301,0.00938157,0.010014036,0.00590301,0.00938157,0.00590301,0.004743491,0.00706253,0.01401965,0.01401965,0.00938157,0.00822205,0.01054109,0.01054109,0.006535476,0.010014036,0.01401965,0.013492595,0.014652115,0.008854516,0.006535476,0.008854516,0.00938157,0.00590301,0.00938157,0.007694996,0.006535476,0.00938157,0.016971155,0.019290195,0.01749821,0.014652115,0.013492595,0.012333075,0.007694996,0.00938157,0.011173555,0.01286013,0.015811635,0.010014036,0.005375956,0.005375956,0.010014036,0.008854516,0.01054109,0.00706253,0.005375956,0.007694996,0.01401965,0.015811635,0.01401965,0.011173555,0.01170061,0.011173555,0.004743491,0.00590301,0.010014036,0.007694996,0.00706253,0.003056916,0.001897396,0.004216436,0.002424451,-0.000421644,0.002424451,-0.000421644,-0.003373149,-0.001054109,0.007694996,0.007694996,0.004216436,0.003583971,0.00706253,0.008854516,0.005375956,0.00706253,0.008854516,0.005375956,0.004216436,-0.001581164,-0.000421644,0.001264931,0.000105411,-0.005059723,-0.001581164,-0.002213629,0.000105411,0.002424451,0.007694996,0.008854516,0.00590301,0.005375956,0.006535476,0.006535476,0.003583971,0.00590301,0.00706253,0.003583971,0.001897396,-0.003373149,-0.002213629,0.002424451,0.003056916,-0.000421644,0.003583971,0.000105411,-0.002740683,-0.001054109,0.00822205,0.011173555,0.00706253,0.004743491,0.002424451,0.000737876,-0.002740683,0.001264931,0.00590301,0.006535476,0.00590301,0.000737876,-0.000421644,0.001264931,0.000105411,-0.002213629,0.003056916,0.001264931,0.000737876,0.004743491,0.012333075,0.014652115,0.01054109,0.00938157,0.01170061,0.008854516,0.003583971,0.007694996,0.010014036,0.008854516,0.00938157,0.003583971,0.003056916,0.006535476,0.010014036,0.00590301,0.00706253,0.001897396,0.000105411,0.005375956,0.01054109,0.01054109,0.007694996,0.004216436,0.005375956,0.003583971,-0.001054109,0.003056916,0.004743491,0.003056916,0.002424451,-0.004532669,-0.005059723,-0.000421644,-0.000421644,-0.002740683,0.002424451,0.000737876,-0.002740683,0.001264931,0.007694996,0.008854516,0.01054109,0.010014036,0.007694996,0.00822205,0.005375956,0.00938157,0.011173555,0.010014036,0.01054109,0.003583971,0.001264931,0.003583971,0.004216436,0.002424451,0.004216436,0.000737876,-0.002740683,0.000105411,0.007694996,0.00822205,0.003583971,0.003583971,0.005375956,0.00590301,0.003056916,0.00590301,0.005375956,0.003583971,0.004216436,0.000737876,0.003056916,0.00590301,0.003583971,0.002424451,0.00706253,0.003056916,0.000737876,0.003583971,0.01170061,0.01401965,0.007694996,0.00590301,0.010014036,0.008854516,0.003583971,0.00706253,0.00822205,0.007694996,0.008854516,0.001264931,0.001897396,0.005375956,0.004743491,0.004216436,0.00706253,0.001264931,0.001897396,0.00590301,0.011173555,0.011173555,0.008854516,0.00938157,0.007694996,0.005375956,0.000737876,0.004216436,0.003583971,0.002424451,0.000737876,-0.005692189,-0.003373149,0.001264931,0.000737876,-0.001054109,0.003583971,0.000737876,-0.001581164,0.002424451,0.007694996,0.006535476,0.001897396,0.003056916,0.006535476,0.006535476,0.003056916,0.00822205,0.008854516,0.00822205,0.00822205,0.002424451,0.003056916,0.004743491,0.001897396,0.000737876,0.006535476,0.005375956,0.003583971,0.008854516,0.012333075,0.013492595,0.010014036,0.00822205,0.00822205,0.00590301,0.002424451,0.00590301,0.004743491,0.00706253,0.00938157,0.006535476,0.007694996,0.012333075,0.011173555,0.007694996,0.00938157,0.006535476,0.004743491,0.01054109,0.018130675,0.018130675,0.01517917,0.01633869,0.01633869,0.01517917,0.01286013,0.015811635,0.01633869,0.014652115,0.014652115,0.008854516,0.01170061,0.018657729,0.01633869,0.01170061,0.011173555,0.00938157,0.007694996,0.01170061,0.01749821,0.018130675,0.01633869,0.019290195,0.018130675,0.016971155,0.01401965,0.01749821,0.018657729,0.018657729,0.01749821,0.01170061,0.01401965,0.020449715,0.022768755,0.022136289,0.026247314,0.027406834,0.032044914,0.043640113,0.052916272,0.054602847,0.052283807,0.054075792,0.058713872,0.057554352,0.052916272,0.055762366,0.057554352,0.056921886,0.055235312,0.047645727,0.047118673,0.053443327,0.054075792,0.055762366,0.055235312,0.049964767,0.048805247,0.055235312,0.061559966,0.059873392,0.054075792,0.051756752,0.051756752,0.051124287,0.048805247,0.050597232,0.049437712,0.048805247,0.049437712,0.046486207,0.049964767,0.052283807,0.053443327,0.053443327,0.054602847,0.055235312,0.058081406,0.071995645,0.08538283,0.090653375,0.090020909,0.091812895,0.095291454,0.098770014,0.099297068,0.102775628,0.105094668,0.108573228,0.108573228,0.103408094,0.103935148,0.105094668,0.102248574,0.099929534,0.098137549,0.088861389,0.083590844,0.090653375,0.098770014,0.104567613,0.104567613,0.106254188,0.108573228,0.109205693,0.105727133,0.106254188,0.106886653,0.106886653,0.106886653,0.102248574,0.104567613,0.109205693,0.106254188,0.108573228,0.109205693,0.103408094,0.097610494,0.095818509,0.087069404,0.078952765,0.071995645,0.067990031,0.063879006,0.059240926,0.054602847,0.051124287,0.045326687,0.043007647,0.036682993,0.027933889,0.025087794,0.025614849,0.022768755,0.022136289,0.023928274,0.020976769,0.018657729,0.022136289,0.022136289,0.018657729,0.00822205,0.004216436,0.00706253,0.004743491,-0.001054109,-0.001054109,-0.002213629,-0.002213629,-0.003900203,-0.008538283,-0.009170748,-0.009170748,-0.013281773,-0.013808828,-0.013808828,-0.019606428,-0.021925467,-0.017919853,-0.017287388,-0.021398413,-0.029515052,-0.032361147,-0.031201627,-0.032993612,-0.032993612,-0.027196012,-0.025404027,-0.025404027,-0.028355532,-0.034680186,-0.035839706,-0.033520666,-0.034680186,-0.030042107,-0.029515052,-0.034680186,-0.034680186,-0.021398413,-0.016760333,-0.017919853,-0.023084987,-0.025404027,-0.025404027,-0.031201627,-0.035839706,-0.032361147,-0.034153132,-0.038791211,-0.048067371,-0.05966257,-0.067146744,-0.074103863,-0.091496662,-0.103724326,-0.115319525,-0.12870671,-0.140301909,-0.144307523,-0.150737588,-0.162332787,-0.17677408,-0.17909312,-0.172768466,-0.166338401,-0.158854227,-0.146626563,-0.132185269,-0.112473431,-0.089177622,-0.061349144,-0.026563547,0.007694996,0.036682993,0.069149551,0.102248574,0.135874651,0.179303942,0.235066309,0.285452719,0.324349341,0.363245964,0.41658388,0.465916181,0.499542258,0.530322241,0.570272973,0.62255678,0.692760439,0.759380129,0.818621055,0.88471369,0.948487285,0.994341026,1.029126624,1.049997982,1.055795581,1.041881343,1.007728211,0.943849205,0.851614667,0.766337248,0.711839812,0.67990031,0.645747178,0.611488635,0.578389612,0.547082575,0.517567522,0.48330898,0.440406743,0.393393481,0.3452207,0.296520864,0.259943281,0.22231159,0.181095927,0.147996905,0.125438972,0.095818509,0.069676605,0.042480593,0.026247314,0.01054109,-0.012649308,-0.027723067,-0.035839706,-0.046907851,-0.054392025,-0.06198161,-0.068306264,-0.060189624,-0.050913465,-0.052072985,-0.050913465,-0.049753945,-0.047434905,-0.041637306,-0.031201627,-0.027723067,-0.028882587,-0.032361147,-0.031834092,-0.031834092,-0.034153132,-0.034680186,-0.030042107,-0.024244507,-0.016760333,-0.016127868,-0.015600813,-0.012649308,-0.010330268,-0.014441293,-0.014441293,-0.014441293,-0.017919853,-0.018446908,-0.013281773,-0.016127868,-0.017287388,-0.021925467,-0.019606428,-0.017919853,-0.021398413,-0.019606428,-0.014441293,-0.014441293,-0.013808828,-0.015600813,-0.017287388,-0.013281773,-0.009170748,-0.014441293,-0.014968348,-0.014968348,-0.019079373,-0.015600813,-0.003900203,-0.002213629,-0.002740683,-0.008011228,-0.005059723,-0.005059723,-0.010857323,-0.010330268,-0.004532669,-0.002213629,-0.003373149,-0.010330268,-0.014441293,-0.009170748,-0.003900203,-0.008538283,-0.005059723,-0.005059723,-0.008538283,-0.006219243,0.004216436,0.00590301,0.00822205,0.00706253,0.00938157,0.01170061,0.00822205,0.007694996,0.010014036,0.007694996,0.00590301,0.000105411,-0.002213629,0.000105411,0.004743491,0.001897396,0.003056916,0.002424451,0.002424451,0.004216436,0.011173555,0.013492595,0.013492595,0.01054109,0.013492595,0.014652115,0.010014036,0.01054109,0.01401965,0.01401965,0.015811635,0.010014036,0.00706253,0.01054109,0.01633869,0.013492595,0.01286013,0.01170061,0.00822205,0.00938157,0.01749821,0.019290195,0.019290195,0.015811635,0.01401965,0.015811635,0.01286013,0.01633869,0.022768755,0.022136289,0.024455329,0.022136289,0.021609235,0.025614849,0.030885394,0.027406834,0.031412448,0.029725874,0.023928274,0.022136289,0.030885394,0.034363954,0.032571968,0.030885394,0.030885394,0.033204434,0.031412448,0.034363954,0.041321073,0.040688608,0.040161553,0.036682993,0.038369568,0.040161553,0.041321073,0.039002033,0.041848128,0.040161553,0.038369568,0.040688608,0.049437712,0.052916272,0.053443327,0.054075792,0.059240926,0.062719486,0.056921886,0.059873392,0.064511471,0.065038526,0.067990031,0.065038526,3,1,22,15,1
0.039364239,0.040153629,0.042732302,0.045310976,0.048205405,0.051573468,0.056625563,0.060888268,0.061940788,0.066835005,0.074307895,0.076149805,0.081307152,0.085885613,0.08893792,0.092937495,0.0972002,0.099620996,0.100568263,0.104515212,0.10467309,0.105883488,0.106830756,0.106988634,0.106515,0.105883488,0.10572561,0.105883488,0.102094417,0.097831712,0.097673834,0.096726566,0.091095585,0.089095798,0.085622483,0.080728266,0.077202325,0.074465773,0.069571556,0.063466942,0.06178291,0.056151929,0.052047102,0.048047527,0.043311188,0.039679995,0.03541729,0.033259624,0.027786522,0.021997663,0.018787478,0.017682332,0.011419839,0.008999044,0.004894217,-0.000473634,-0.002262917,-0.005788859,-0.010683076,-0.014630025,-0.01573517,-0.020313631,-0.023208061,-0.026576124,-0.030049439,-0.033891136,-0.037680208,-0.039522117,-0.04289018,-0.049889437,-0.053573256,-0.0532575,-0.057993839,-0.06178291,-0.062993308,-0.066361371,-0.0692558,-0.0692558,-0.071571344,-0.074939407,-0.074465773,-0.076623439,-0.077675958,-0.0785706,-0.079517868,-0.08041251,-0.080570388,-0.0785706,-0.07935999,-0.08146503,-0.08041251,-0.076149805,-0.078254844,-0.076623439,-0.075834049,-0.077202325,-0.076623439,-0.075518293,-0.076149805,-0.0785706,-0.078254844,-0.078728478,-0.080886144,-0.082728053,-0.085780361,-0.089411554,-0.094621527,-0.100726141,-0.106199244,-0.117619083,-0.131354466,-0.142826932,-0.154878283,-0.174086769,-0.191821727,-0.212398488,-0.236659069,-0.260603893,-0.286390627,-0.315387547,-0.344700222,-0.371855232,-0.400694274,-0.427691406,-0.453320262,-0.475633681,-0.495473678,-0.506156754,-0.514840042,-0.519418503,-0.512840254,-0.494210655,-0.473160259,-0.436690449,-0.392010986,-0.336174812,-0.265971744,-0.18403308,-0.092305983,0.011577717,0.130301947,0.2569727,0.394116025,0.538626988,0.689400444,0.842752574,0.998051865,1.152035506,1.299914533,1.437373614,1.56767556,1.687294431,1.787546939,1.871959024,1.938004639,1.982578851,2.006523675,2.01078638,1.991577895,1.950687502,1.892220029,1.814123063,1.718606894,1.608408075,1.486368409,1.353750919,1.214607806,1.071149362,0.927427789,0.780811786,0.63830061,0.505209486,0.377065205,0.257288456,0.150141944,0.05141559,-0.033733258,-0.106199244,-0.169245178,-0.222029044,-0.25907774,-0.290969088,-0.31233524,-0.325912744,-0.333701391,-0.336174812,-0.334648659,-0.32701789,-0.318913488,-0.312808873,-0.302125798,-0.285653864,-0.276181186,-0.262603681,-0.249026176,-0.23755371,-0.224923473,-0.211030212,-0.199136739,-0.189821939,-0.17682332,-0.167087512,-0.157772712,-0.149089424,-0.141458656,-0.135038286,-0.128775793,-0.122986934,-0.117198076,-0.116408686,-0.113093248,-0.106515,-0.106672878,-0.102989059,-0.100726141,-0.099936751,-0.096726566,-0.094884657,-0.095516168,-0.094884657,-0.093253251,-0.094147893,-0.093358503,-0.093832137,-0.095042535,-0.09614768,-0.096568688,-0.095516168,-0.099620996,-0.102989059,-0.101936539,-0.103146937,-0.106672878,-0.106672878,-0.108514788,-0.110461949,-0.110146193,-0.110777705,-0.112461737,-0.112935371,-0.110461949,-0.110935583,-0.109725185,-0.108620039,-0.107093886,-0.105883488,-0.104199456,-0.100884019,-0.09904211,-0.100094629,-0.097936964,-0.092779617,-0.093832137,-0.091095585,-0.08972731,-0.089569432,-0.08683288,-0.085622483,-0.087148636,-0.085148849,-0.084517337,-0.084359459,-0.083938451,-0.083622695,-0.083622695,-0.083464817,-0.081780786,-0.081044022,-0.083464817,-0.084096329,-0.08041251,-0.080886144,-0.080728266,-0.079202112,-0.07935999,-0.079044234,-0.076623439,-0.075518293,-0.076307683,-0.074781529,-0.07215023,-0.071571344,-0.070203068,-0.069097922,-0.068361159,-0.067466517,-0.066519249,-0.063151186,-0.064677339,-0.065940363,-0.061940788,-0.062098666,-0.061940788,-0.061204024,-0.061625032,-0.061361902,-0.059204237,-0.059362115,-0.060256756,-0.056467685,-0.056309807,-0.054783654,-0.053573256,-0.051731346,-0.050205193,-0.048205405,-0.045626732,-0.041942913,-0.043205936,-0.042574424,-0.03752233,-0.037206574,-0.037206574,-0.035259412,-0.035838298,-0.036943444,-0.036311932,-0.037206574,-0.040258881,-0.041521905,-0.041785035,-0.044416334,-0.046521374,-0.048521161,-0.050205193,-0.05246811,-0.053994264,-0.052362858,-0.05431002,-0.056941319,-0.053099622,-0.051731346,-0.051099834,-0.047784397,-0.046363496,-0.041942913,-0.036311932,-0.032628113,-0.027312888,-0.020734639,-0.015419415,-0.0093148,-0.003683819,0.001526154,0.006736126,0.013419627,0.019050608,0.021681907,0.024734214,0.032207105,0.03646981,0.039206361,0.0439427,0.045942488,0.048679039,0.0532575,0.055678295,0.056467685,0.059519993,0.062993308,0.063782698,0.065940363,0.067571769,0.068834792,0.070360946,0.071571344,0.075097285,0.074150017,0.073255375,0.075202537,0.078254844,0.076465561,0.077833836,0.078254844,0.077044447,0.078412722,0.079202112,0.077675958,0.077044447,0.0785706,0.076886569,0.076886569,0.076465561,0.075676171,0.074781529,0.076465561,0.076465561,0.073571131,0.073255375,0.076465561,0.073992139,0.074623651,0.074939407,0.073255375,0.073413253,0.074623651,0.073097498,0.071571344,0.073413253,0.0718871,0.070781954,0.07004519,0.068834792,0.067308639,0.065940363,0.065624607,0.062414422,0.058151717,0.055678295,0.056151929,0.050363071,0.046679251,0.043205936,0.037995963,0.033417502,0.030523073,0.024576336,0.017998088,0.015419415,0.009472678,0.005473103,0.000631512,-0.003789071,-0.008104402,-0.011735595,-0.013419627,-0.018945356,-0.024418458,-0.025786734,-0.026576124,-0.031417715,-0.032207105,-0.034312144,-0.036785566,-0.037364452,-0.037680208,-0.039522117,-0.042258668,-0.040732515,-0.043205936,-0.044258456,-0.045468854,-0.046837129,-0.048205405,-0.050047315,-0.050941957,-0.05141559,-0.055994051,-0.059362115,-0.059362115,-0.060572512,-0.064414209,-0.065308851,-0.067571769,-0.071413466,-0.072308108,-0.073676383,-0.077044447,-0.080096754,-0.079938876,-0.082991183,-0.084990971,-0.086990758,-0.089569432,-0.091411341,-0.092305983,-0.092779617,-0.097673834,-0.100410385,-0.097673834,-0.101778661,-0.102410173,-0.102831181,-0.106041366,-0.105567732,-0.10572561,-0.106830756,-0.108777917,-0.105883488,-0.107251764,-0.106199244,-0.10572561,-0.104988846,-0.104515212,-0.103620571,-0.100410385,-0.098568476,-0.099778873,-0.098884232,-0.093095373,-0.092937495,-0.091727097,-0.08893792,-0.088359034,-0.086990758,-0.083780573,-0.082833305,-0.083622695,-0.080254632,-0.080254632,-0.079202112,-0.078254844,-0.077833836,-0.077360203,-0.076623439,-0.073413253,-0.073992139,-0.074939407,-0.072465986,-0.068361159,-0.069571556,-0.066677127,-0.064677339,-0.064256332,-0.060098878,-0.057046571,-0.055678295,-0.052625988,-0.048047527,-0.046100366,-0.04289018,-0.039679995,-0.037101322,-0.034049014,-0.031575593,-0.026418246,-0.02610249,-0.025628856,-0.021050395,-0.016945568,-0.01678769,-0.013261749,-0.01036732,-0.008683288,-0.005052095,-0.001526154,0.000736764,0.002736551,0.008999044,0.011314587,0.015577292,0.020313631,0.025155222,0.030049439,0.03568042,0.041785035,0.044100578,0.049310551,0.057835961,0.060888268,0.065466729,0.070939832,0.073834261,0.077675958,0.082570175,0.085148849,0.086043491,0.08972731,0.091253463,0.091727097,0.092779617,0.092621739,0.092148105,0.091411341,0.09077983,0.091990227,0.087411766,0.084096329,0.085148849,0.083938451,0.079517868,0.078149592,0.075360415,0.072044978,0.07109771,0.068834792,0.065150973,0.062098666,0.061467154,0.058309595,0.055415165,0.053415378,0.050678827,0.048205405,0.047784397,0.045468854,0.040258881,0.040258881,0.038469597,0.034049014,0.032049227,0.027786522,0.023944825,0.021839785,0.017524454,0.011419839,0.008999044,0.004420583,-0.000473634,-0.004420583,-0.009472678,-0.014209017,-0.019208486,-0.023786947,-0.026418246,-0.033259624,-0.039522117,-0.041679783,-0.044416334,-0.050205193,-0.052625988,-0.055994051,-0.059941,-0.061046146,-0.063151186,-0.066361371,-0.068834792,-0.068045403,-0.070624076,-0.072044978,-0.07293962,-0.074623651,-0.075991927,-0.077044447,-0.076307683,-0.077044447,-0.0812019,-0.081938664,-0.079517868,-0.082991183,-0.083306939,-0.084359459,-0.08683288,-0.086359247,-0.087569644,-0.090464074,-0.089885188,-0.09077983,-0.092305983,-0.093358503,-0.094884657,-0.097042322,-0.099778873,-0.101778661,-0.10572561,-0.113830012,-0.121618659,-0.126354997,-0.138985235,-0.151825976,-0.166192871,-0.184454088,-0.205083476,-0.225818115,-0.251289093,-0.280601769,-0.307441023,-0.337700966,-0.368487169,-0.398852364,-0.427849283,-0.455793683,-0.482159303,-0.501578293,-0.516945081,-0.531627732,-0.537890225,-0.528996433,-0.519734259,-0.498052352,-0.464476971,-0.422797189,-0.366645259,-0.297547337,-0.218503103,-0.127091761,-0.020155753,0.095674046,0.223870953,0.361961546,0.508103915,0.659772013,0.816018572,0.973686032,1.126090894,1.275496074,1.420270168,1.555150575,1.675558836,1.785284021,1.878063638,1.953108297,2.011260014,2.048940222,2.065149026,2.061623085,2.039362292,1.995261714,1.933584056,1.855487089,1.761497075,1.654666319,1.537310365,1.412481521,1.279127267,1.140878797,1.004472235,0.869012942,0.733027389,0.60498836,0.481264661,0.366224251,0.261709039,0.165403481,0.077833836,0.005946737,-0.059941,-0.114303646,-0.159456744,-0.196400188,-0.225239229,-0.24660538,-0.25907774,-0.269339807,-0.276970576,-0.278338851,-0.271602725,-0.267182142,-0.260182885,-0.249184054,-0.238816734,-0.227028513,-0.212556366,-0.198978861,-0.187664274,-0.173823639,-0.16082502,-0.150299822,-0.139300991,-0.130459825,-0.122092292,-0.1158298,-0.109409429,-0.102410173,-0.099936751,-0.099357866,-0.09535829,-0.091569219,-0.092937495,-0.090937707,-0.091253463,-0.091727097,-0.09077983,-0.091411341,-0.094305771,-0.091990227,-0.094463649,-0.095042535,-0.09641081,-0.097515956,-0.098884232,-0.099620996,-0.098726354,-0.098884232,-0.102094417,-0.103304815,-0.099463118,-0.100568263,-0.100568263,-0.099463118,-0.099463118,-0.100252507,-0.097831712,-0.096726566,-0.097831712,-0.09641081,-0.093990015,-0.093358503,-0.092148105,-0.091569219,-0.090306196,-0.089569432,-0.08867479,-0.084990971,-0.085148849,-0.086517124,-0.084833093,-0.08041251,-0.082728053,-0.080728266,-0.079780998,-0.080096754,-0.077833836,-0.076465561,-0.077202325,-0.075518293,-0.074623651,-0.074150017,-0.073097498,-0.072308108,-0.071413466,-0.070781954,-0.069413678,-0.066835005,-0.068203281,-0.068834792,-0.064519461,-0.063940576,-0.064098454,-0.061625032,-0.061361902,-0.061361902,-0.059204237,-0.057835961,-0.059046359,-0.058151717,-0.055994051,-0.057520205,-0.056625563,-0.056625563,-0.056467685,-0.057046571,-0.056941319,-0.05509941,-0.055678295,-0.058467473,-0.059046359,-0.055520417,-0.058151717,-0.057520205,-0.057204449,-0.058151717,-0.055678295,-0.054941532,-0.055415165,-0.0532575,-0.051889224,-0.049889437,-0.048363283,-0.046100366,-0.04473209,-0.042574424,-0.038153841,-0.037995963,-0.037995963,-0.033417502,-0.029733683,-0.029733683,-0.02610249,-0.024734214,-0.023944825,-0.020734639,-0.019050608,-0.018787478,-0.018155966,-0.014787903,-0.014945781,-0.013735383,-0.012840741,-0.011893473,-0.010998832,-0.010209442,-0.007157134,-0.007157134,-0.00852541,-0.006578249,-0.002578673,-0.004262705,-0.002157666,-0.000631512,-0.000473634,0.00184191,0.004578461,0.005630981,0.006104615,0.010683076,0.011314587,0.013577505,0.015577292,0.017261324,0.018787478,0.020734639,0.024734214,0.024576336,0.024260581,0.028681164,0.030680951,0.031417715,0.034312144,0.0346279,0.036785566,0.039837873,0.040153629,0.040258881,0.0439427,0.044258456,0.045468854,0.047152885,0.047889649,0.048994795,0.050678827,2,0,26,10,0
