-0.0724022547764918,-0.0567366681362349,-0.0549657757334232,-0.0538078845469694,-0.0578945593226886,-0.0666127988442229,-0.0648419064414113,-0.0799626031115723,-0.0933124073789217,-0.0984888620948327,-0.111838666362182,-0.1309779265618,-0.139083164866977,-0.148414405604869,-0.15188807916423,-0.148959295574965,-0.153045970350684,-0.149572296791323,-0.147256514418415,-0.136222492523973,-0.12341757822672,-0.115312339921543,-0.115312339921543,-0.117083232324355,-0.118786013480905,-0.115925341137901,-0.11006777395937,-0.114767449951448,-0.106594100400009,-0.10489131924346,-0.118241123510809,-0.131590927778158,-0.139083164866977,-0.157064533880141,-0.171572229333944,-0.188395707160655,-0.195343054279378,-0.169869448177395,-0.144872620799246,-0.130433036591704,-0.118241123510809,-0.11245166757854,-0.120556905883716,-0.124575469413174,-0.121101795853812,-0.110680775175728,-0.101962535654194,-0.115925341137901,-0.122259687040266,-0.12341757822672,-0.139696166083335,-0.154203861537138,-0.151275077947872,-0.147256514418415,-0.157677535096499,-0.166940664588129,-0.163466991028768,-0.147256514418415,-0.136767382494069,-0.126891251786081,-0.115925341137901,-0.11006777395937,-0.114767449951448,-0.108909882772917,-0.0991018633111906,-0.0897706225732984,-0.0880678414167488,-0.121101795853812,-0.15188807916423,-0.169869448177395,-0.18376414241484,-0.188395707160655,-0.179132577669025,-0.16285398981241,-0.15188807916423,-0.16285398981241,-0.173888011706852,-0.157677535096499,-0.137380383710427,-0.119399014697263,-0.113609558764994,-0.119943904667359,-0.131590927778158,-0.130433036591704,-0.119943904667359,-0.109522883989275,-0.0979439721247368,-0.111838666362182,-0.118786013480905,-0.117083232324355,-0.133906710151066,-0.160538207439503,-0.181448360041932,-0.203516403830816,-0.218024099284619,-0.231918793522065,-0.23655035826788,-0.211008640919635,-0.190166599563467,-0.169256446961037,-0.147256514418415,-0.139083164866977,-0.138538274896881,-0.129820035375347,-0.114767449951448,-0.0926994061625638,-0.0752629271194953,-0.0799626031115723,-0.0781917107087607,-0.0700864724035843,-0.0677706900306767,-0.0526499933605157,-0.0126686918047295,0.0326252869594916,0.0836406104097196,0.133498042673494,0.18342358618353,0.255893952206284,0.331906103034661,0.406760362676584,0.483317403475058,0.561032335459984,0.636431485072004,0.729812003697187,0.83136587187381,0.930535846431262,1.02105569271344,1.08194714687166,1.14229371105978,1.18520379620483,1.20373005518809,1.21421918711244,1.22171142420126,1.23621911965506,1.24377946799014,1.22634298894707,1.17301188312394,1.11790988489799,1.07963136449875,1.05640542952341,1.03433738573453,0.983322062284302,0.893960107188575,0.787229784296042,0.679954571433413,0.578468814503053,0.486791077034419,0.402673687900865,0.33769555896693,0.272717430032995,0.190983934518611,0.122532132025314,0.0737644797017316,0.0273807209973186,-0.0166872553341867,-0.0555787769497811,-0.0788047119251186,-0.0781917107087607,-0.0811204942980261,-0.0747180371493994,-0.0590524505091424,-0.056123666919877,-0.0642970164713154,-0.0666127988442229,-0.0752629271194953,-0.0857520590438412,-0.096786080938283,-0.116470231107997,-0.120556905883716,-0.109522883989275,-0.0973309709083789,-0.0933124073789217,-0.101417645684098,-0.12171479707017,-0.142556838426338,-0.157064533880141,-0.162309099842314,-0.139696166083335,-0.124030579443078,-0.107207101616367,-0.0892257326032025,-0.0805074930816682,-0.0788047119251186,-0.0788047119251186,-0.086909950230295,-0.0915415149761101,-0.086909950230295,-0.0915415149761101,-0.0961730797219252,-0.107207101616367,-0.124030579443078,-0.128662144188893,-0.122259687040266,-0.120556905883716,-0.12341757822672,-0.132135817748254,-0.136222492523973,-0.118241123510809,-0.0950151885354714,-0.0706313623736802,-0.0422289726824317,-0.0393001890931663,-0.0659997976278651,-0.0839811666410296,-0.0897706225732984,-0.0926994061625638,-0.0926994061625638,-0.11006777395937,-0.124030579443078,-0.119943904667359,-0.119943904667359,-0.124030579443078,-0.132135817748254,-0.147256514418415,-0.157677535096499,-0.164624882215222,-0.166940664588129,-0.142011948456242,-0.109522883989275,-0.0805074930816682,-0.0752629271194953,-0.0717892535601339,-0.0625261240685037,-0.0602103416955962,-0.0689285812171305,-0.0776468207386648,-0.0805074930816682,-0.086909950230295,-0.0874548402003909,-0.106594100400009,-0.143714729612792,-0.150730187977776,-0.135609491307615,-0.124030579443078,-0.111838666362182,-0.119399014697263,-0.13506460133752,-0.122872688256624,-0.111293776392086,-0.101417645684098,-0.0880678414167488,-0.0828232754545758,-0.0793496018952145,-0.0694734711872264,-0.0677706900306767,-0.0677706900306767,-0.081665384268122,-0.102575536870552,-0.108909882772917,-0.108364992802821,-0.115312339921543,-0.119943904667359,-0.114767449951448,-0.113609558764994,-0.11245166757854,-0.122872688256624,-0.131590927778158,-0.115925341137901,-0.0996467532812865,-0.0839811666410296,-0.0706313623736802,-0.0585075605390465,-0.0532629945768736,-0.0463156474581509,-0.0497893210175122,-0.0585075605390465,-0.0741050359330415,-0.0979439721247368,-0.107751991586463,-0.11245166757854,-0.126891251786081,-0.127504253002439,-0.120556905883716,-0.122259687040266,-0.12171479707017,-0.124030579443078,-0.12171479707017,-0.101962535654194,-0.0880678414167488,-0.0788047119251186,-0.0694734711872264,-0.0590524505091424,-0.0422289726824317,-0.0225448225127175,-0.0115108006182757,0.0018390036490736,-0.0021795598803835,-0.0207739301099059,-0.0335107331608974,-0.0480184286147006,-0.0747180371493994,-0.0862969490139371,-0.102575536870552,-0.128662144188893,-0.140241056053431,-0.142011948456242,-0.137925273680523,-0.112996557548636,-0.0938572973490176,-0.0851390578274833,-0.0752629271194953,-0.0631391252848616,-0.0544208857633273,-0.0468605374282468,-0.0375974079366166,-0.0173002565505446,-0.0126686918047295,-0.0108977994019178,0.0006811124626198,-0.0161423653640908,-0.0625261240685037,-0.100259754497644,-0.110680775175728,-0.10080464446774,-0.0828232754545758,-0.0724022547764918,-0.045702646241793,-0.0044953422532911,0.0070835696112466,0.0076284595813425,0.0082414607977003,-0.0033374510668373,-0.0155293641477329,-0.0138265829911832,-0.005108343469649,0.0169597003192346,0.0395726340782142,0.0442041988240293,0.0314673957730378,0.0093993519841541,-0.0091950182453682,-0.0016346699102876,0.0169597003192346,0.0285386121837724,0.035485959302495,0.0273807209973186,0.0186624814757843,0.0343280681160412,0.0470648711670328,0.0563961119049249,0.0563961119049249,0.051151545942752,0.0517645471591098,0.0645013502101014,0.0790090456639045,0.0963774134607111,0.0998510870200724,0.091745848714896,0.0963774134607111,0.103392871825696,0.0981483058635228,0.10046408823643,0.10455076301215,0.0975353046471649,0.0900430675583464,0.081869718006908,0.0871142839690809,0.110885108914514,0.129479479144037,0.148005738127297,0.168915890729727,0.18512636734008,0.190370933302253,0.195615499264426,0.198476171607429,0.203720737569602,0.190370933302253,0.169460780699823,0.159652761238097,0.146302956970747,0.133498042673494,0.132953152703398,0.137584717449213,0.136426826262759,0.138197718665571,0.138197718665571,0.141671392224932,0.152637302873112,0.154408195275924,0.163126434797458,0.17586323784845,0.177634130251261,0.17586323784845,0.1741604566919,0.170073781916181,0.179949912624169,0.179949912624169,0.168302889513369,0.158494870051643,0.144532064567936,0.120216349652407,0.106253544168699,0.108024436571511,0.110885108914514,0.108569326541607,0.0935167411177077,0.0900430675583464,0.0998510870200724,0.109182327757965,0.122532132025314,0.132953152703398,0.13234015148704,0.128866477927679,0.135268935076305,0.124234913181864,0.117832456033237,0.124847914398222,0.132953152703398,0.128321587957583,0.0986931958336187,0.0529224383455636,0.0186624814757843,-0.0103529094318219,-0.0225448225127175,-0.0196160389234521,-0.0277212772286285,-0.0318079520043477,-0.0196160389234521,-0.0085820170290103,0.004767787238339,0.0175045902893305,0.0221361550351456,0.0262228298108648,0.0331701769295875,0.0412754152347639,0.0552382207184712,0.0499936547562982,0.0331701769295875,0.030241393340322,0.0163466991028768,-0.014984474177637,-0.0277212772286285,-0.0294921696314402,-0.0352816255637091,-0.0439998650852434,-0.056123666919877,-0.0526499933605157,-0.0433868638688855,-0.0428419738987896,-0.0364395167501628,-0.0283342784449864,-0.0178451465206405,-0.0143714729612791,-0.0138265829911832,-0.0184581477369983,-0.0196160389234521,-0.0369844067202587,-0.0451577562716971,-0.0364395167501628,-0.0352816255637091,-0.0422289726824317,-0.0439998650852434,-0.0486314298310585,-0.0585075605390465,-0.0659997976278651,-0.0752629271194953,-0.0642970164713154,-0.0393001890931663,-0.0288791684150823,-0.0225448225127175,-0.0196160389234521,-0.0271763872585326,-0.035826515533805,-0.035826515533805,-0.0283342784449864,-0.009739908215464,-0.0057213446860068,-0.0143714729612791,-0.0294921696314402,-0.0521051033904198,-0.0717892535601339,-0.0781917107087607,-0.0788047119251186,-0.0758759283358531,-0.0735601459629456,-0.0788047119251186,-0.0671576888143188,-0.0480184286147006,-0.0369844067202587,-0.014984474177637,0.0111021331407038,0.0111021331407038,0.0029968948355274,0.0029968948355274,0.0128730255435154,0.0401175240483101,0.0395726340782142,0.0163466991028768,-0.009739908215464,-0.0288791684150823,-0.0538078845469694,-0.0677706900306767,-0.0770338195223069,-0.086909950230295,-0.0886127313868447,-0.0839811666410296,-0.0654549076577692,-0.0532629945768736,-0.0602103416955962,-0.0654549076577692,-0.0578945593226886,-0.0463156474581509,-0.0323528419744436,-0.0213188200800018,-0.0091950182453682,0.0122600243271576,0.0012941136789777,-0.0242476036692672,-0.0364395167501628,-0.0538078845469694,-0.071244363590038,-0.0689285812171305,-0.0585075605390465,-0.0468605374282468,-0.0387552991230704,-0.0480184286147006,-0.0497893210175122,-0.0428419738987896,-0.0422289726824317,-0.045702646241793,-0.0422289726824317,-0.0393001890931663,-0.0387552991230704,-0.0335107331608974,-0.020160928893548,-0.0044953422532911,-0.0173002565505446,-0.0288791684150823,-0.0300370596015361,-0.0329658431908015,-0.0416840827123358,-0.0439998650852434,-0.0439998650852434,-0.0422289726824317,-0.0399131903095242,-0.0491763198011543,-0.0451577562716971,-0.0260184960720789,-0.0108977994019178,0.0012941136789777,0.0128730255435154,0.0169597003192346,0.0128730255435154,0.0064705683948887,0.004767787238339,0.0082414607977003,0.0036098960518852,0.0041547860219811,-0.0010216686939298,-0.0288791684150823,-0.0636840152549575,-0.0758759283358531,-0.0752629271194953,-0.0654549076577692,-0.0555787769497811,-0.0642970164713154,-0.0666127988442229,-0.0590524505091424,-0.0468605374282468,-0.0346686243473512,-0.0230897124828134,-0.020160928893548,-0.0166872553341867,-0.0115108006182757,-0.0021795598803835,0.015188807916423,0.0076284595813425,-0.0155293641477329,-0.0369844067202587,-0.0439998650852434,-0.0486314298310585,-0.0428419738987896,-0.0375974079366166,-0.0486314298310585,-0.0480184286147006,-0.0341237343772553,-0.0138265829911832,-0.014984474177637,-0.0311949507879899,-0.0474735386446047,-0.0486314298310585,-0.0364395167501628,-0.0213188200800018,-0.0138265829911832,-0.0132135817748254,-0.0103529094318219,-0.0260184960720789,-0.0346686243473512,-0.0311949507879899,-0.0410710814959779,-0.0642970164713154,-0.071244363590038,-0.0799626031115723,-0.0839811666410296,-0.0874548402003909,-0.101417645684098,-0.0961730797219252,-0.0747180371493994,-0.0503342109876081,-0.0155293641477329,0.004767787238339,-0.0039504522831952,-0.0085820170290103,-0.0085820170290103,0.0006811124626198,0.0186624814757843,0.0059256784247928,-0.0219318212963597,-0.0439998650852434,-0.0631391252848616,-0.0758759283358531,-0.071244363590038,-0.0683155800007726,-0.0671576888143188,-0.0689285812171305,-0.0839811666410296,-0.076488929552211,-0.0590524505091424,-0.0480184286147006,-0.0381422979067125,-0.0318079520043477,-0.0283342784449864,-0.0213188200800018,-0.0138265829911832,-0.0108977994019178,-0.0033374510668373,-0.0207739301099059,-0.0433868638688855,-0.0555787769497811,-0.0654549076577692,-0.0805074930816682,-0.0857520590438412,-0.096786080938283,-0.103120426840648,-0.100259754497644,-0.0903836237896563,-0.06136823288205,-0.0428419738987896,-0.040526191525882,-0.0364395167501628,-0.0352816255637091,-0.0369844067202587,-0.0323528419744436,-0.0318079520043477,-0.0364395167501628,-0.0341237343772553,-0.0514921021740619,-0.0648419064414113,-0.0700864724035843,-0.0724022547764918,-0.0758759283358531,-0.0752629271194953,-0.0799626031115723,-0.0793496018952145,-0.0741050359330415,-0.0799626031115723,-0.0666127988442229,-0.0445447550553393,-0.035826515533805,-0.0375974079366166,-0.0445447550553393,-0.0369844067202587,-0.0178451465206405,-0.0143714729612791,-0.0091950182453682,0.00994424195425,0.0006811124626198,-0.020160928893548,-0.0526499933605157,-0.0909285137597522,-0.107751991586463,-0.106049210429913,-0.107207101616367,-0.101417645684098,-0.092086404946206,-0.0961730797219252,-0.0886127313868447,-0.0834362766709337,-0.0851390578274833,-0.0741050359330415,-0.0590524505091424,-0.0480184286147006,-0.0318079520043477,-0.0265633860421748,-0.030650060817894,-0.0283342784449864,-0.035826515533805,-0.0329658431908015,-0.0346686243473512,-0.050947212203966,-0.071244363590038,-0.0799626031115723,-0.0776468207386648,-0.0706313623736802,-0.0694734711872264,-0.0805074930816682,-0.0735601459629456,-0.0654549076577692,-0.0659997976278651,-0.0521051033904198,-0.0323528419744436,-0.0300370596015361,-0.0260184960720789,-0.0173002565505446,-0.0190030377070942,-0.0207739301099059,-0.0410710814959779,-0.0480184286147006,-0.0433868638688855,-0.0497893210175122,-0.0654549076577692,-0.0671576888143188,-0.0700864724035843,-0.0700864724035843,-0.0758759283358531,-0.0851390578274833,-0.071244363590038,-0.0555787769497811,-0.040526191525882,-0.0265633860421748,-0.0184581477369983,-0.0260184960720789,-0.0288791684150823,-0.0237027136991713,-0.0138265829911832,-0.0010216686939298,-0.0178451465206405,-0.030650060817894,-0.0300370596015361,-0.0294921696314402,-0.0277212772286285,-0.0230897124828134,-0.0219318212963597,-0.0143714729612791,-0.0103529094318219,-0.0132135817748254,0.0012941136789777,0.0105572431706079,0.015188807916423,0.0285386121837724,0.0517645471591098,0.0697459161722743,0.0755353721045432,0.0598697854642863,0.045906979980579,0.0442041988240293,0.020433373878596,0.0001362224925239,-0.0184581477369983,-0.0416840827123358,-0.0439998650852434,-0.0375974079366166,-0.040526191525882,-0.0422289726824317,-0.0311949507879899,-0.0294921696314402,-0.0132135817748254,0.0087863507677962,0.0296965033702262,0.0308543945566799,0.0169597003192346,0.0006811124626198,-0.0062662346561027,-0.0062662346561027,0.0001362224925239,0.0163466991028768,0.0024520048654315,-0.0219318212963597,-0.0329658431908015,-0.0422289726824317,-0.0451577562716971,-0.0335107331608974,-0.0335107331608974,-0.0451577562716971,-0.0585075605390465,-0.0724022547764918,-0.0585075605390465,-0.0416840827123358,-0.0311949507879899,-0.0271763872585326,-0.0294921696314402,-0.0346686243473512,-0.0352816255637091,-0.0387552991230704,-0.0399131903095242,-0.0410710814959779,-0.056123666919877,-0.0631391252848616,-0.0694734711872264,-0.0793496018952145,-0.0811204942980261,-0.0834362766709337,-0.0979439721247368,-0.108364992802821,-0.111293776392086,-0.111293776392086,-0.0834362766709337,-0.050947212203966,-0.0352816255637091,-0.0381422979067125,-0.0526499933605157,-0.0596654517255003,-0.0526499933605157,-0.0514921021740619,-0.0578945593226886,-0.0602103416955962,-0.0706313623736802,-0.0694734711872264,-0.0747180371493994,-0.0950151885354714,-0.11006777395937,-0.119399014697263,-0.127504253002439,-0.12171479707017,-0.117628122294451,-0.112996557548636,-0.0834362766709337,-0.0526499933605157,-0.0318079520043477,-0.0230897124828134,-0.0283342784449864,-0.0341237343772553,-0.0335107331608974,-0.0271763872585326,-0.0237027136991713,-0.0288791684150823,-0.0567366681362349,-0.0776468207386648,-0.0926994061625638,-0.107207101616367,-0.11245166757854,-0.111293776392086,-0.117083232324355,-0.11245166757854,-0.103120426840648,-0.10080464446774,-0.0886127313868447,-0.0880678414167488,-0.092086404946206,-0.0811204942980261,-0.0700864724035843,-0.0659997976278651,-0.0602103416955962,-0.0602103416955962,-0.0659997976278651,-0.0706313623736802,-0.0752629271194953,-0.0677706900306767,-0.0631391252848616,-0.0625261240685037,-0.0596654517255003,-0.0625261240685037,-0.0752629271194953,-0.0961730797219252,-0.122259687040266,-0.132135817748254,-0.117628122294451,-0.105436209213555,-0.103120426840648,-0.106049210429913,-0.0984888620948327,-0.086909950230295,-0.0799626031115723,-0.081665384268122,-0.0781917107087607,-0.0805074930816682,-0.0979439721247368,-0.0996467532812865,-0.0956281897518293,-0.0961730797219252,-0.0886127313868447,-0.06136823288205,-0.0369844067202587,-0.0219318212963597,-0.0143714729612791,-0.0080371270589144,0.015188807916423,0.040730525264668,0.0783960444475466,0.134655933859948,0.197318280420975,0.257664844609096,0.330135210631849,0.408463143833134,0.480388619885792,0.544208857633274,0.592363508740498,0.643378832190726,0.706041178751754,0.781440328363773,0.869644392273046,0.960096127308964,1.0372661693238,1.09761273351192,1.14747016577569,1.19446692569646,1.23853490202797,1.2623057269734,1.29077622791091,1.32381018234797,1.32959963828024,2,1,23,15,0
-0.110406568685993,-0.109798708701921,-0.10634350458193,-0.105767637228598,-0.103432175184531,-0.100520845787131,-0.0976415090204726,-0.0947301796230731,-0.0947301796230731,-0.0918188502256737,-0.0930025775630779,-0.0999449784337996,-0.104008042537862,-0.105767637228598,-0.108071106641925,-0.110406568685993,-0.104008042537862,-0.0958819143297367,-0.0935784449164097,-0.0918188502256737,-0.088939513459015,-0.0883636461056832,-0.0871799187682791,-0.0837247146482886,-0.077326188500158,-0.0721113896894316,-0.0721113896894316,-0.0779020558534897,-0.0790857831908939,-0.0732631243960951,-0.0576187279639158,-0.0500684671091217,-0.045429535651727,-0.0402147368410006,-0.0425501988850683,-0.0448536682983953,-0.0460054030050588,-0.0500684671091217,-0.0541315312131846,-0.0529797965065211,-0.0529797965065211,-0.0564669932572523,-0.0593463300239111,-0.0587704626705793,-0.0564669932572523,-0.0524039291531894,-0.0506443344624535,-0.04949259975579,-0.0518280617998576,-0.0541315312131846,-0.0506443344624535,-0.0483408650491265,-0.0437019335917318,-0.0338482033236107,-0.0222348783647537,-0.0106215534058967,0.0026873809822148,0.0102376418370089,0.0102376418370089,0.0044469756729507,-0.0065904819325744,-0.0181718142606908,-0.0245703404088214,-0.0309368739262113,-0.0384871347810054,-0.0419423389009959,-0.04949259975579,-0.0599221973772428,-0.0732631243960951,-0.0854523167082838,-0.0947301796230731,-0.0999449784337996,-0.102280440477867,-0.105767637228598,-0.108071106641925,-0.105767637228598,-0.102280440477867,-0.100520845787131,-0.100520845787131,-0.0987932437271361,-0.0900912481656785,-0.0871799187682791,-0.0860281840616156,-0.0831488472949568,-0.0796616505442256,-0.0761744537934945,-0.0692000602920322,-0.0651689888187099,-0.0663207235253734,-0.0692000602920322,-0.0755985864401627,-0.0843005820016203,-0.0953060469764049,-0.108646973995257,-0.121412033660778,-0.129538161868903,-0.134177093326298,-0.141695361550352,-0.149245622405146,-0.157371750613271,-0.159675220026599,-0.162010682070666,-0.162586549423998,-0.165497878821397,-0.164314151483993,-0.159099352673267,-0.157371750613271,-0.158523485319935,-0.162586549423998,-0.162010682070666,-0.162586549423998,-0.166649613528061,-0.167801348234724,-0.170712677632124,-0.172440279692119,-0.171288544985455,-0.171288544985455,-0.168377215588056,-0.164314151483993,-0.163738284130661,-0.16316241677733,-0.164314151483993,-0.166073746174729,-0.166073746174729,-0.162010682070666,-0.155644148553276,-0.152156951802545,-0.151005217095882,-0.152156951802545,-0.15388455386254,-0.155644148553276,-0.157371750613271,-0.15679588325994,-0.157371750613271,-0.162010682070666,-0.16316241677733,-0.162586549423998,-0.160858947364003,-0.162586549423998,-0.162010682070666,-0.160858947364003,-0.159099352673267,-0.157947617966603,-0.15679588325994,-0.153308686509209,-0.149245622405146,-0.14751802034515,-0.149245622405146,-0.149821489758477,-0.150397357111809,-0.153308686509209,-0.15679588325994,-0.15679588325994,-0.155644148553276,-0.158523485319935,-0.157947617966603,-0.15679588325994,-0.157947617966603,-0.155644148553276,-0.154460421215872,-0.155036288569204,-0.156220015906608,-0.156220015906608,-0.157947617966603,-0.157947617966603,-0.152732819155877,-0.146942152991819,-0.145758425654414,-0.148093887698482,-0.149821489758477,-0.153308686509209,-0.162010682070666,-0.179414673193581,-0.203185197833886,-0.226955722474191,-0.246695175641174,-0.256548905909295,-0.260611970013358,-0.2548213038493,-0.233354248622322,-0.200881728420559,-0.170136810278792,-0.138816024783693,-0.104008042537862,-0.0651689888187099,-0.0274496771754801,0.0026873809822148,0.0253061709158564,0.0467732261428345,0.0630254825590861,0.085068405139396,0.110566531839696,0.141887317334796,0.178422901640621,0.221357012094577,0.271233523419255,0.328052435614655,0.390694006604853,0.456246906992451,0.533957007061497,0.61400256917461,0.692288536596988,0.774637568123428,0.863385125797999,0.957923349636629,1.04955024407786,1.13714606704577,1.2241340300296,1.29429386924385,1.35405610346739,1.4091474136028,1.45553672817674,1.49092057777591,1.523968965331,1.53558229028986,1.50598910685475,1.43989233174456,1.34129104380187,1.21715963652814,1.06928969724484,0.908046838311951,0.741589180568334,0.575131522824717,0.427837450894751,0.319958300037269,0.235273806466761,0.147102116145522,0.0693920160764761,0.0125731038810765,-0.0332403433395383,-0.0680483255853686,-0.0976415090204726,-0.123715503074105,-0.152156951802545,-0.181142275253577,-0.204912799893882,-0.221165056310133,-0.231594653931586,-0.246119308287843,-0.265250901470753,-0.285534229360327,-0.296571686965852,-0.294236224921785,-0.276832233798869,-0.2548213038493,-0.236841445373053,-0.221740923663465,-0.210159591335349,-0.200273868436487,-0.189268403461702,-0.181718142606908,-0.17883880584025,-0.177079211149514,-0.179990540546913,-0.184053604650976,-0.181142275253577,-0.171288544985455,-0.167225480881393,-0.162010682070666,-0.159099352673267,-0.157371750613271,-0.158523485319935,-0.156220015906608,-0.155036288569204,-0.148669755051814,-0.137664290077029,-0.130689896575567,-0.127778567178168,-0.124323363058177,-0.11907657161671,-0.115045500143388,-0.113861772805984,-0.113861772805984,-0.113285905452652,-0.114437640159315,-0.116197234850051,-0.113861772805984,-0.11271003809932,-0.113285905452652,-0.111558303392657,-0.105159777244526,-0.105159777244526,-0.104008042537862,-0.102280440477867,-0.0999449784337996,-0.0941543122697414,-0.0918188502256737,-0.0935784449164097,-0.0953060469764049,-0.0930025775630779,-0.0895153808123467,-0.0871799187682791,-0.0871799187682791,-0.0871799187682791,-0.0900912481656785,-0.0930025775630779,-0.0906671155190102,-0.0848764493549521,-0.0837247146482886,-0.0831488472949568,-0.0819651199575526,-0.0796616505442256,-0.077326188500158,-0.0738389917494268,-0.0698079202761045,-0.0692000602920322,-0.0680483255853686,-0.0680483255853686,-0.0674724582320369,-0.0639852614813057,-0.0645611288346375,-0.0657448561720416,-0.0680483255853686,-0.0698079202761045,-0.0726872570427633,-0.0738389917494268,-0.0709596549827681,-0.0692000602920322,-0.0703837876294363,-0.0709596549827681,-0.0680483255853686,-0.0639852614813057,-0.0645611288346375,-0.0622576594213105,-0.0541315312131846,-0.0460054030050588,-0.0437019335917318,-0.045429535651727,-0.0460054030050588,-0.0489167324024582,-0.0477649976957947,-0.0489167324024582,-0.0483408650491265,-0.0483408650491265,-0.0506443344624535,-0.0489167324024582,-0.0465812703583906,-0.0477649976957947,-0.0448536682983953,-0.0407906041943324,-0.0373034074436012,-0.035575805383606,-0.0349999380302742,-0.0367275400902695,-0.0338482033236107,-0.0297851392195478,-0.0268738098221484,-0.0274496771754801,-0.0280255445288119,-0.0309368739262113,-0.0326644759862065,-0.0367275400902695,-0.0390630021343371,-0.037879274796933,-0.0349999380302742,-0.0338482033236107,-0.0297851392195478,-0.0257220751154849,-0.0222348783647537,-0.0205072763047585,-0.0187476816140225,-0.0164442122006955,-0.0129570154499644,-0.0083180839925697,-0.003679152535175,-0.0025274178285115,0.0009597789222195,0.002111513628883,0.0003839115688878,0.0003839115688878,0.0026873809822148,0.0032952409662872,0.0055987103796142,0.006174577732946,0.0050228430262825,0.0085100397770136,0.0131489712344083,0.0125731038810765,0.0154524406477353,0.0172120353384712,0.016028308001067,0.02009137210513,0.0259140308999288,0.0293692350199193,0.0351918938147181,0.0432860293921033,0.0508362902468974,0.0519880249535609,0.0508362902468974,0.0543234869976286,0.0583865511016915,0.0583865511016915,0.0612658878683502,0.0636013499124179,0.0641772172657497,0.0665126793098173,0.0717274781205437,0.0740309475338707,0.0775181442846019,0.0821570757419966,0.085068405139396,0.0879477419060547,0.0914349386567859,0.0960738701141806,0.106503467735633,0.116389190634495,0.123907458858549,0.127970522962611,0.131457719713343,0.137248385877401,0.144798646732195,0.147709976129594,0.152924774940321,0.153500642293653,0.155228244353648,0.16220263785511,0.170904633416568,0.178422901640621,0.18424556043542,0.191187961306142,0.198162354807604,0.203953020971662,0.208591952429057,0.217293947990514,0.228299412965299,0.236425541173425,0.243975802028219,0.250342335545609,0.256740861693739,0.26019606581373,0.263683262564461,0.267746326668524,0.270081788712592,0.271233523419255,0.273536992832582,0.281087253687376,0.286877919851434,0.292124711292902,0.300794714223618,0.307769107725081,0.312408039182475,0.316471103286538,0.32341350415726,0.330963765012054,0.337938158513516,0.344880559384238,0.348943623488301,0.350095358194964,0.353006687592364,0.35822148640309,0.364012152567148,0.36749934931788,0.368075216671211,0.368075216671211,0.368075216671211,0.372714148128606,0.379112674276737,0.3831757383808,0.384327473087463,0.387238802484862,0.387814669838194,0.387238802484862,0.38663094250079,0.388390537191526,0.391877733942257,0.393029468648921,0.388390537191526,0.3802644089834,0.37389787546601,0.369834811361947,0.361708683153821,0.351279085532369,0.343728824677575,0.332115499718718,0.319958300037269,0.311256304475812,0.299642979516955,0.285150317791439,0.274720720169986,0.264866989901865,0.250342335545609,0.235273806466761,0.222508746801241,0.212079149179788,0.202801286264999,0.192947555996877,0.18133423103802,0.169145038725832,0.156987839044384,0.14652624879219,0.13376118912667,0.122179856798553,0.109990664486365,0.0949221354075171,0.0792457463445972,0.0670885466631491,0.0589624184550232,0.0491086881869021,0.0409825599787763,0.0351918938147181,0.0253061709158564,0.017787902691803,0.0102376418370089,0.0038711083196189,0.0009597789222195,-0.0025274178285115,-0.0112294133899691,-0.017595946907359,-0.0251462077621531,-0.0332403433395383,-0.0402147368410006,-0.0489167324024582,-0.0535556638598529,-0.0616817920679787,-0.0680483255853686,-0.0721113896894316,-0.0744468517334992,-0.0790857831908939,-0.0843005820016203,-0.0877877787523515,-0.0895153808123467,-0.0924267102097461,-0.0953060469764049,-0.0958819143297367,-0.0935784449164097,-0.0953060469764049,-0.0970656416671408,-0.0999449784337996,-0.102280440477867,-0.105767637228598,-0.109222841348589,-0.111558303392657,-0.113285905452652,-0.114437640159315,-0.116773102203383,-0.117924836910047,-0.117924836910047,-0.116773102203383,-0.117348969556715,-0.120260298954114,-0.120836166307446,-0.118500704263378,-0.117924836910047,-0.11907657161671,-0.117924836910047,-0.114437640159315,-0.114437640159315,-0.116197234850051,-0.120260298954114,-0.121987901014109,-0.121987901014109,-0.124899230411509,-0.127202699824836,-0.128962294515572,-0.131841631282231,-0.131265763928899,-0.130114029222235,-0.128962294515572,-0.127202699824836,-0.124899230411509,-0.126050965118172,-0.127778567178168,-0.12838642716224,-0.130689896575567,-0.127202699824836,-0.121987901014109,-0.120836166307446,-0.121412033660778,-0.121987901014109,-0.123715503074105,-0.126626832471504,-0.130689896575567,-0.132417498635562,-0.13475296067963,-0.137664290077029,-0.136480562739625,-0.13475296067963,-0.132417498635562,-0.130114029222235,-0.127202699824836,-0.127778567178168,-0.130114029222235,-0.129538161868903,-0.131265763928899,-0.128962294515572,-0.123715503074105,-0.122563768367441,-0.120260298954114,-0.122563768367441,-0.124323363058177,-0.126626832471504,-0.127778567178168,-0.130114029222235,-0.131265763928899,-0.133025358619635,-0.132417498635562,-0.132417498635562,-0.133025358619635,-0.133025358619635,-0.130689896575567,-0.129538161868903,-0.127778567178168,-0.128962294515572,-0.131265763928899,-0.124899230411509,-0.119684431600782,-0.117348969556715,-0.117924836910047,-0.11907657161671,-0.119684431600782,-0.11907657161671,-0.11907657161671,-0.121987901014109,-0.126050965118172,-0.12838642716224,-0.125475097764841,-0.121987901014109,-0.120260298954114,-0.11907657161671,-0.117348969556715,-0.117348969556715,-0.116773102203383,-0.117348969556715,-0.11562136749672,-0.113285905452652,-0.108071106641925,-0.103432175184531,-0.105767637228598,-0.105767637228598,-0.106919371935262,-0.109798708701921,-0.115045500143388,-0.117924836910047,-0.11907657161671,-0.119684431600782,-0.121412033660778,-0.121987901014109,-0.123139635720773,-0.122563768367441,-0.121987901014109,-0.123139635720773,-0.122563768367441,-0.123139635720773,-0.11907657161671,-0.115045500143388,-0.110406568685993,-0.109222841348589,-0.110982436039325,-0.110982436039325,-0.109222841348589,-0.108646973995257,-0.111558303392657,-0.116197234850051,-0.11907657161671,-0.120260298954114,-0.120836166307446,-0.120836166307446,-0.11907657161671,-0.117348969556715,-0.116197234850051,-0.11562136749672,-0.115045500143388,-0.113861772805984,-0.11271003809932,-0.109222841348589,-0.10634350458193,-0.104583909891194,-0.105767637228598,-0.108646973995257,-0.112134170745988,-0.112134170745988,-0.110406568685993,-0.113285905452652,-0.118500704263378,-0.116773102203383,-0.115045500143388,-0.113861772805984,-0.11562136749672,-0.118500704263378,-0.11907657161671,-0.120836166307446,-0.122563768367441,-0.123139635720773,-0.120260298954114,-0.117348969556715,-0.115045500143388,-0.113861772805984,-0.11562136749672,-0.118500704263378,-0.117348969556715,-0.117348969556715,-0.118500704263378,-0.120260298954114,-0.123715503074105,-0.126050965118172,-0.124323363058177,-0.124899230411509,-0.123715503074105,-0.126050965118172,-0.127202699824836,-0.127202699824836,-0.128962294515572,-0.128962294515572,-0.12838642716224,-0.124323363058177,-0.121987901014109,-0.121987901014109,-0.124323363058177,-0.124323363058177,-0.124899230411509,-0.126050965118172,-0.124899230411509,-0.126626832471504,-0.129538161868903,-0.130114029222235,-0.131265763928899,-0.133025358619635,-0.130689896575567,-0.129538161868903,-0.12838642716224,-0.128962294515572,-0.12838642716224,-0.126626832471504,-0.124323363058177,-0.120260298954114,-0.11562136749672,-0.114437640159315,-0.113285905452652,-0.113861772805984,-0.116773102203383,-0.116773102203383,-0.116773102203383,-0.11907657161671,-0.120836166307446,-0.123715503074105,-0.122563768367441,-0.118500704263378,-0.118500704263378,-0.118500704263378,-0.11907657161671,-0.119684431600782,-0.118500704263378,-0.11562136749672,-0.110406568685993,-0.104008042537862,-0.0999449784337996,-0.0999449784337996,-0.101096713140463,-0.101096713140463,-0.105767637228598,-0.109222841348589,-0.112134170745988,-0.11271003809932,-0.111558303392657,-0.110406568685993,-0.105767637228598,-0.0999449784337996,-0.0935784449164097,-0.088939513459015,-0.0895153808123467,-0.0918188502256737,-0.0918188502256737,-0.0900912481656785,-0.0860281840616156,-0.077326188500158,-0.0721113896894316,-0.0709596549827681,-0.0680483255853686,-0.061105924714647,-0.0518280617998576,-0.0483408650491265,-0.0465812703583906,-0.0448536682983953,-0.0465812703583906,-0.0500684671091217,-0.0506443344624535,-0.0506443344624535,-0.0524039291531894,-0.0547073985665164,-0.0593463300239111,-0.0639852614813057,-0.061105924714647,-0.0593463300239111,-0.0593463300239111,-0.0570428606105841,-0.0524039291531894,-0.0529797965065211,-0.0529797965065211,-0.0483408650491265,-0.0431260662384,-0.0361516727369377,-0.0257220751154849,-0.0164442122006955,-0.0083180839925697,-0.0019515504751798,0.006174577732946,0.0090859071303454,0.0009597789222195,-0.010045686052565,-0.0146846175099596,-0.0170200795540273,-0.0233866130714172,-0.0320886086328748,-0.0367275400902695,-0.0413664715476641,-0.0500684671091217,-0.0599221973772428,-0.0668965908787051,-0.0721113896894316,-0.075022719086831,-0.0767503211468262,-0.0813892526042209,-0.0819651199575526,-0.0796616505442256,-0.0779020558534897,-0.0726872570427633,-0.0703837876294363,-0.0680483255853686,-0.0639852614813057,-0.0663207235253734,-0.0674724582320369,-0.0639852614813057,-0.0616817920679787,-0.0605300573613152,-0.0552832659198481,-0.0529797965065211,-0.0541315312131846,-0.061105924714647,-0.0674724582320369,-0.0726872570427633,-0.0790857831908939,-0.0866040514149473,-0.0970656416671408,-0.107495239288594,-0.117924836910047,-0.124323363058177,-0.133601225972966,-0.139391892137025,-0.142879088887756,-0.145758425654414,-0.14751802034515,-0.149821489758477,-0.148669755051814,-0.146366285638487,-0.141695361550352,-0.13475296067963,-0.133601225972966,-0.134177093326298,-0.137664290077029,-0.141695361550352,-0.142879088887756,-0.144030823594419,-0.145758425654414,-0.146366285638487,-0.148669755051814,-0.151005217095882,-0.151005217095882,-0.152732819155877,-0.152156951802545,-0.150397357111809,-0.149821489758477,-0.148669755051814,-0.148669755051814,-0.148093887698482,-0.142303221534424,-0.138240157430361,-0.136480562739625,-0.138240157430361,-0.139967759490356,-0.139391892137025,-0.140543626843688,-0.142879088887756,-0.145182558301083,-0.149245622405146,-0.15388455386254,-0.15388455386254,-0.15388455386254,-0.154460421215872,-0.155644148553276,-0.154460421215872,-0.152732819155877,-0.152732819155877,-0.151581084449213,-0.146942152991819,-0.142303221534424,-0.139391892137025,-0.14111949419702,-0.143454956241088,-0.144030823594419,-0.144606690947751,-0.144606690947751,-0.142879088887756,-0.145182558301083,-0.149821489758477,-0.150397357111809,-0.148669755051814,-0.146942152991819,-0.148093887698482,-0.148093887698482,-0.146942152991819,-0.148093887698482,2,1,24,32,0
-0.0520230104513958,-0.052502209165974,-0.0526519587642797,-0.0526519587642797,-0.0528017083625854,-0.0528017083625854,-0.052502209165974,-0.052502209165974,-0.0518732608530901,-0.0515737616564787,-0.050974763263256,-0.0504955645486778,-0.049896566155455,-0.049447317360538,-0.0485188698510427,-0.0477701218595143,-0.0469914239483247,-0.046841674350019,-0.0465421751534076,-0.0460929263584906,-0.0459431767601849,-0.0459431767601849,-0.0459431767601849,-0.0466919247517133,-0.0469914239483247,-0.0477701218595143,-0.048369120252737,-0.0492975677622323,-0.0504955645486778,-0.0511245128615617,-0.0521727600497015,-0.0534007067558081,-0.0543291542653034,-0.0553774014534432,-0.0560063497663271,-0.0560063497663271,-0.0566053481595498,-0.0566053481595498,-0.0567550977578555,-0.0564555985612442,-0.0566053481595498,-0.0564555985612442,-0.0572342964724337,-0.0567550977578555,-0.0572342964724337,-0.0576835452673508,-0.0582825436605735,-0.0587317924554906,-0.0595104903666802,-0.0601094887599029,-0.0611876858677039,-0.0617866842609266,-0.0630146309670333,-0.0642425776731399,-0.0654705243792465,-0.0668482206836589,-0.0683457166667158,-0.0694239137745167,-0.070352361284012,-0.0711011092755404,-0.07187980718673,-0.0721793063833413,-0.072329055981647,-0.0721793063833413,-0.07187980718673,-0.0715503580704575,-0.0709513596772347,-0.0700229121677394,-0.0688249153812939,-0.0672974694785759,-0.0654705243792465,-0.0633141301636446,-0.0613374354660096,-0.0585820428571849,-0.0560063497663271,-0.0534007067558081,-0.0503458149503721,-0.0476203722612086,-0.045314228447301,-0.0428882849547489,-0.0401328923459242,-0.0375272493354052,-0.0349515562445474,-0.0324956628323341,-0.0294407710268981,-0.0265356288197678,-0.0238101861306043,-0.0209050439234739,-0.0179999017163436,-0.0157237078220971,-0.0132678144098839,-0.0112911197122488,-0.0093144250146137,-0.0080864783085071,-0.0067087820040948,-0.0051813361013767,-0.0039533893952701,-0.0032046414037417,-0.0021264442959407,-0.0018269450993293,-0.0013776963044123,-0.0009284475094952,-0.000449248794917,0,0.0007487479915284,0.0022761938942464,0.003504140600353,0.0059600340125663,0.0083859775051185,0.0117403685071659,0.0152445091075189,0.0190780988241445,0.0238101861306043,0.0289915222319811,0.0344723575299692,0.0401328923459242,0.0471411735466304,0.054029655068692,0.0614871850643152,0.0686751657829883,0.0761326957786115,0.0833206764972845,0.0903289576979907,0.0967382405054741,0.102548524919735,0.10847860901264,0.1132106963191,0.118242282822171,0.122075872538796,0.125130764344233,0.12770645743509,0.129383652936114,0.130461850043915,0.130911098838832,0.130761349240526,0.130012601248998,0.128634904944586,0.127107459041867,0.125430263540844,0.123303819244903,0.12084792583269,0.11902098073336,0.116415337722841,0.114288893426901,0.111533500818076,0.108628358610946,0.105423717207204,0.102069326205157,0.0981159368098864,0.0938330982983438,0.0898797089030736,0.086046119186448,0.0813439817996494,0.0769113936898011,0.0715503580704575,0.0668482206836589,0.0610379362693982,0.0552276518551375,0.0485188698510427,0.0421095870435593,0.0354008050394645,0.0286920230353697,0.0212045431200853,0.0143460115176848,0.0074874799152843,0.000449248794917,-0.0065590324057891,-0.0134175640081896,-0.019826846815673,-0.0263858792214621,-0.0323459132340285,-0.0383059472465948,-0.0433375337496659,-0.0485188698510427,-0.0532509571575024,-0.0575337956690451,-0.0608881866710925,-0.0639430784765285,-0.0669979702819646,-0.0691244145779053,-0.0714006084721518,-0.073407253089448,-0.074934698992166,-0.0764321949752229,-0.0782890899942134,-0.0799662854952371,-0.0816434809962608,-0.0833206764972845,-0.0848481224000025,-0.0862258187044148,-0.0882025134020499,-0.0898797089030736,-0.0920061531990144,-0.0938330982983438,-0.0965884909071684,-0.0988646848014149,-0.101919576606851,-0.104674969215676,-0.107879610619417,-0.110335504031631,-0.113060946720794,-0.115816339329619,-0.118092533223865,-0.120698176234384,-0.122225622137102,-0.124052567236432,-0.125280513942538,-0.126179011532372,-0.126957709443562,-0.12770645743509,-0.127856207033396,-0.128185656149669,-0.12770645743509,-0.12770645743509,-0.127257208640173,-0.126328761130678,-0.126029261934067,-0.125280513942538,-0.124651565629654,-0.124202316834737,-0.123453568843209,-0.122824620530325,-0.122375371735408,-0.121926122940491,-0.121926122940491,-0.122225622137102,-0.121926122940491,-0.122075872538796,-0.122525121333714,-0.123303819244903,-0.123603318441514,-0.124352066433043,-0.125130764344233,-0.126508460648645,-0.127856207033396,-0.12953340253442,-0.131540047151716,-0.133816241045962,-0.136272134458176,-0.138398578754116,-0.140824522246668,-0.143729664453799,-0.146035808267706,-0.148461751760259,-0.150618145975861,-0.152295341476884,-0.153822787379602,-0.155020784166048,-0.155499982880626,-0.155020784166048,-0.153343588665024,-0.151217144369083,-0.146934305857541,-0.141153971362941,-0.13321724265274,-0.122674870932019,-0.109706555718747,-0.0936833487000381,-0.0747549994741992,-0.0529514579608911,-0.027464076329263,0.001976694697635,0.034652057047936,0.0715503580704575,0.112611697925877,0.157925926373178,0.205995547429304,0.258318057077311,0.314024907647027,0.372936399620484,0.435172332676328,0.499414910349468,0.566113381434821,0.633710350110008,0.702655065169947,0.771929229346158,0.840903894325758,0.908201363804334,0.972443941477474,1.03180468224585,1.08382769269724,1.12929167074285,1.1653214240952,1.19155755371836,1.20743101113876,1.21246259764183,1.20620306443265,1.18880216110953,1.16058933678874,1.12153464155062,1.07208732419008,1.01332558181493,0.945129614746516,0.868847169369599,0.785376743274009,0.696575231478736,0.603640630770226,0.508130336970859,0.41259009325183,0.317229549050768,0.225073646253448,0.136871132851398,0.0532509571575024,-0.0233309874160261,-0.0935335991017324,-0.156098981273849,-0.210727634735763,-0.257120060290865,-0.295246308019493,-0.326094725270465,-0.349275963088186,-0.365598669303505,-0.376290790622532,-0.380693428812719,-0.381172627527297,-0.377189288212366,-0.369881507815048,-0.359968084407212,-0.348497265176996,-0.335379200365418,-0.322111385955534,-0.30806487363446,-0.294347810429659,-0.281379495216387,-0.268411180003114,-0.256790611174593,-0.245679190980311,-0.234837320062979,-0.22537314545006,-0.216507969230363,-0.207972242126939,-0.200963960926233,-0.193925729805865,-0.187845896114654,-0.182335110897005,-0.177752773188851,-0.173020685882391,-0.169516545282038,-0.165413406288462,-0.162358514483026,-0.159453372275896,-0.156697979667071,-0.153643087861635,-0.150618145975861,-0.147563254170424,-0.144957611159906,-0.142202218551081,-0.139147326745645,-0.136571633654787,-0.133816241045962,-0.131540047151716,-0.129084153739503,-0.126807959845256,-0.124501816031349,-0.122824620530325,-0.120548426636078,-0.118871231135055,-0.11689453643742,-0.115367090534702,-0.114139143828595,-0.112761447524183,-0.11138375121977,-0.110485253629936,-0.109407056522135,-0.108328859414334,-0.107130862627889,-0.106501914315005,-0.105273967608898,-0.104225720420759,-0.103447022509569,-0.102848024116346,-0.102548524919735,-0.102069326205157,-0.102069326205157,-0.101620077410239,-0.101320578213628,-0.100871329418711,-0.101170828615322,-0.100392130704133,-0.100541880302439,-0.0997931323109101,-0.0997931323109101,-0.0994936331142987,-0.0987149352031092,-0.0985651856048035,-0.097816437613275,-0.0970377397020855,-0.0965884909071684,-0.096288991710557,-0.0955102937993675,-0.0946117962095333,-0.0936833487000381,-0.0930843503068153,-0.0918564036007087,-0.0906284568946021,-0.0900294585013793,-0.0888015117952727,-0.0883522630003556,-0.0874238154908603,-0.0868248170976376,-0.0868248170976376,-0.0863755683027205,-0.0857466199898366,-0.0857466199898366,-0.0858963695881423,-0.0854471207932253,-0.0846983728016968,-0.0840694244888129,-0.0834704260955902,-0.0820927297911779,-0.0813439817996494,-0.0801160350935428,-0.0791875875840475,-0.0778098912796352,-0.0767616440914954,-0.0752341981887774,-0.0737067522860594,-0.0720295567850357,-0.0706518604806233,-0.0688249153812939,-0.067746718273493,-0.066219272370775,-0.064691826468057,-0.0637933288782229,-0.0627151317704219,-0.0617866842609266,-0.0614871850643152,-0.0607384370727868,-0.0605886874744811,-0.0601094887599029,-0.0601094887599029,-0.0599597391615972,-0.0596602399649859,-0.0592109911700688,-0.0589114919734574,-0.0579830444639622,-0.0578332948656565,-0.0572342964724337,-0.0560063497663271,-0.0550779022568318,-0.0537002059524195,-0.0520230104513958,-0.0506453141469835,-0.0486686194493484,-0.0466919247517133,-0.043786782544583,-0.0415105886503365,-0.0393541944347346,-0.0364790021472654,-0.0340231087350522,-0.0315971652425,-0.0294407710268981,-0.0271645771326517,-0.0248584333187441,-0.0230314882194147,-0.0210547935217796,-0.0190780988241445,-0.0174009033231208,-0.0163227062153199,-0.0144957611159905,-0.0132678144098839,-0.0120398677037772,-0.0114408693105545,-0.0100631730061422,-0.0086854767017298,-0.0080864783085071,-0.0071580307990118,-0.0059600340125663,-0.004582337708154,-0.0032046414037417,-0.001976694697635,-0.0007487479915284,0.0005989983932227,0.0024558934122132,0.0042828385115426,0.0065590324057891,0.0086854767017298,0.0108418709173317,0.0135673136064952,0.0161729566170142,0.0195273476190616,0.0225822394244976,0.0256371312299337,0.0288417726336754,0.0320464140374171,0.0354008050394645,0.0393541944347346,0.0427385353564432,0.0466919247517133,0.0503458149503721,0.0543291542653034,0.0589114919734574,0.0627151317704219,0.0671477198802702,0.07187980718673,0.0766118944931897,0.0808647830850712,0.086046119186448,0.0911076556091802,0.0965884909071684,0.101620077410239,0.1074303618245,0.112911197122488,0.118871231135055,0.125130764344233,0.131060848437138,0.137320381646315,0.143729664453799,0.149989197662977,0.156248730872154,0.162358514483026,0.16876779729051,0.175027330499687,0.181436613307171,0.187366697400076,0.19377598020756,0.19958626462182,0.205995547429304,0.21195558144187,0.21773591593647,0.223246701154119,0.228877286050413,0.234537820866368,0.239719156967745,0.244750743470816,0.250081829170498,0.255442864789842,0.260474451292913,0.26565578739429,0.270687373897361,0.275718960400432,0.281079996019775,0.286411081719458,0.292041666615752,0.297402702235095,0.302284539139861,0.307615624839543,0.312347712146003,0.317379298649074,0.321961636357228,0.326394224467076,0.330347613862347,0.334330953177278,0.338583841769159,0.342267681887479,0.345622072889527,0.34912621348988,0.352330854893622,0.355086247502446,0.357661940593304,0.360267583603823,0.362394027899764,0.363921473802482,0.365299170106894,0.367126115206224,0.368204312314024,0.368803310707247,0.369731758216742,0.371079504601494,0.37125920411946,0.371558703316072,0.371858202512683,0.371408953717766,0.370929755003188,0.370181007011659,0.369102809903859,0.367725113599446,0.365748418901811,0.364220972999093,0.362394027899764,0.359638635290939,0.356583743485503,0.353229352483456,0.349725211883103,0.345921572086138,0.34148898397629,0.336906646268136,0.331725310166759,0.325765276154193,0.319206243748403,0.312347712146003,0.305189681346991,0.296923503520517,0.288387776417093,0.279852049313669,0.270387874700749,0.261073449686136,0.251609275073216,0.24169585166538,0.231782428257543,0.221569505653095,0.211626132325598,0.201562959319455,0.19194903510823,0.182035611700394,0.172421687489169,0.163257012072861,0.153972536977908,0.145107360758211,0.137020882449704,0.128634904944586,0.120698176234384,0.112911197122488,0.106052665520088,0.0990443843193817,0.0921559027973201,0.085596870391531,0.0793373371823532,0.0735570026877537,0.0671477198802702,0.0610379362693982,0.0550779022568318,0.0492975677622323,0.0434872833479716,0.0380064480499834,0.0318966644391114,0.0260863800248507,0.0199765964139787,0.0137470131244621,0.0077869791118957,0.0022761938942464,-0.0036538901986587,-0.0088352263000355,-0.0140465123210734,-0.0187785996275332,-0.0235106869339929,-0.0279133251241801,-0.0323459132340285,-0.0359998034326872,-0.0401328923459242,-0.0431877841513602,-0.0466919247517133,-0.0495970669588437,-0.052502209165974,-0.0546286534619148,-0.0567550977578555,-0.0582825436605735,-0.0595104903666802,-0.0605886874744811,-0.0617866842609266,-0.0628648813687276,-0.0639430784765285,-0.0645420768697513,-0.0649913256646683,-0.0653207747809409,-0.0659197731741636,-0.0654705243792465,-0.066219272370775,-0.0665187715673864,-0.0666685211656921,-0.0668482206836589,-0.0672974694785759,-0.0672974694785759,-0.0681959670684101,-0.0689746649795996,-0.0694239137745167,-0.0698731625694338,-0.0711011092755404,-0.0714006084721518,-0.0720295567850357,-0.0727783047765641,-0.0735570026877537,-0.0741560010809764,-0.0750844485904717,-0.0761326957786115,-0.0767616440914954,-0.0779596408779409,-0.0788880883874361,-0.0799662854952371,-0.0807150334867655,-0.0816434809962608,-0.0828414777827063,-0.0837699252922016,-0.0840694244888129,-0.0848481224000025,-0.0849978719983082,-0.0858963695881423,-0.0857466199898366,-0.085596870391531,-0.0854471207932253,-0.0852973711949196,-0.0848481224000025,-0.0846983728016968,-0.0842191740871186,-0.0830211773006731,-0.0823922289877892,-0.0817932305945665,-0.0810145326833769,-0.0802657846918485,-0.0796368363789646,-0.0793373371823532,-0.0791875875840475,-0.0788880883874361,-0.0790378379857418,-0.0788880883874361,-0.0794870867806589,-0.0796368363789646,-0.0794870867806589,-0.0799662854952371,-0.0801160350935428,-0.0801160350935428,-0.0811642822816826,-0.0807150334867655,-0.0810145326833769,-0.0813439817996494,-0.0814937313979551,-0.0814937313979551,-0.0817932305945665,-0.0814937313979551,-0.0814937313979551,-0.0810145326833769,-0.0804155342901542,-0.0801160350935428,-0.0793373371823532,-0.0787383387891305,-0.0779596408779409,-0.0775103920830238,-0.0770611432881068,-0.0764321949752229,-0.0756834469836944,-0.074934698992166,-0.0743057506792821,-0.0744555002775878,-0.0740062514826707,-0.0737067522860594,-0.0727783047765641,-0.0726285551782584,-0.0724788055799527,-0.0721793063833413,-0.0720295567850357,-0.0715503580704575,-0.0711011092755404,-0.070801610078929,-0.0706518604806233,-0.0697234129711281,-0.069274164176211,-0.0683457166667158,-0.067746718273493,-0.0669979702819646,-0.0666685211656921,-0.0657700235758579,-0.0653207747809409,-0.065141075262974,-0.0643923272714456,-0.0640928280748342,-0.0633141301636446,-0.063164380565339,-0.0627151317704219,-0.0619364338592323,-0.0616369346626209,-0.0607384370727868,-0.0604389378761754,-0.0598099895632916,-0.0593607407683745,-0.0590612415717631,-0.0582825436605735,-0.0579830444639622,-0.0575337956690451,-0.0573840460707394,-0.0566053481595498,-0.0561560993646328,-0.0553774014534432,-0.0547784030602205,-0.0544789038636091,-0.0537002059524195,-0.0534007067558081,-0.0526519587642797,-0.0523524595676683,-0.0520230104513958,-0.0512742624598674,-0.0512742624598674,-0.050974763263256,-0.0503458149503721,-0.0503458149503721,-0.0500463157537607,-0.049896566155455,-0.0495970669588437,-0.0492975677622323,-0.0486686194493484,-0.0485188698510427,-0.0482193706544313,-0.0477701218595143,-0.0472909231449361,-0.0463924255551019,-0.0460929263584906,-0.0456137276439124,-0.0448649796523839,-0.0442360313395001,-0.0434872833479716,-0.0431877841513602,-0.0434872833479716,-0.0430380345530546,-0.0425588358384763,-0.0424090862401707,-0.0427385353564432,-0.0430380345530546,-0.0430380345530546,-0.0431877841513602,-0.043786782544583,-0.0447152300540783,-0.045314228447301,-0.0459431767601849,-0.0472909231449361,-0.0482193706544313,-0.0488183690476541,-0.0497468165571493,-0.0504955645486778,-0.0504955645486778,-0.0506453141469835,-0.0508250136649503,-0.0503458149503721,-0.049896566155455,-0.0488183690476541,-0.048369120252737,-0.0476203722612086,-0.0471411735466304,-0.0462426759567963,-0.0456137276439124,-0.0448649796523839,-0.0444157308574669,-0.043786782544583,-0.0434872833479716,-0.0436370329462773,-0.0430380345530546,-0.0431877841513602,-0.0434872833479716,-0.0445654804557726,-0.045314228447301,-0.0463924255551019,-0.04791987145782,-0.0492975677622323,-0.0504955645486778,-0.052502209165974,-0.0537002059524195,-0.0549281526585261,-0.0561560993646328,-0.0575337956690451,-0.0579830444639622,-0.0584322932588792,-0.0590612415717631,-0.0589114919734574,-0.0595104903666802,-0.0593607407683745,-0.0590612415717631,-0.0582825436605735,-0.0576835452673508,-0.0567550977578555,-0.0553774014534432,-0.0541794046669977,-0.0529514579608911,-0.0515737616564787,-0.0500463157537607,-0.0489681186459598,-0.0480696210561256,-0.0471411735466304,-0.0466919247517133,-0.0463924255551019,-0.0460929263584906,-0.0465421751534076,-0.0466919247517133,-0.0472909231449361,-0.0482193706544313,-0.049447317360538,-0.0508250136649503,-0.0518732608530901,-0.0534007067558081,-0.0549281526585261,-0.0560063497663271,-0.0576835452673508,-0.0589114919734574,-0.0599597391615972,-0.0607384370727868,-0.0616369346626209,-0.0624156325738105,-0.0634638797619503,-0.0634638797619503,-0.0642425776731399,-0.0642425776731399,-0.0643923272714456,-0.0645420768697513,-0.064691826468057,-0.0648415760663627,-0.0648415760663627,-0.0649913256646683,-0.065141075262974,-0.0653207747809409,-0.0654705243792465,-0.0660695227724693,-0.0663690219690807,-0.0672974694785759,-0.0675969686751873,-0.0685254161846826,-0.0691244145779053,-0.0697234129711281,-0.070352361284012,-0.0711011092755404,-0.0712508588738461,-0.0711011092755404,-0.0711011092755404,-0.0705021108823176,-0.0702026116857063,7,1,28,30,0
0,0.0008641721706116,0.0003888774767752,0,0.0003456688682446,0.0008425678663463,2.16043042652907E-05,0.0007129420407545,0.0001728344341223,0.0002592516511834,0.0009937979962033,-0.0016203228198968,-0.0005617119108975,-0.0020740132094679,-0.0028517681630183,-0.0038239618549564,-0.0037375446378952,-0.0039103790720176,-0.0039967962890787,-0.0036727317250994,-0.0030678112056712,-0.0027869552502224,-0.0005833162151628,2.16043042652907E-05,0.001339466864448,0.0026573294246307,0.0041264221146705,0.0041048178104052,0.0068053558435665,0.0067405429307706,0.0082096356208104,0.0098299584407072,0.008404074359198,0.0104996918729312,0.0092898508340749,0.0100892100918907,0.0098731670492378,0.0097435412236461,0.0098083541364419,0.0087281389231774,0.0092466422255444,0.0082744485336063,0.0065677084966483,0.0076263194056476,0.0070430031904847,0.0062652482369343,0.0067189386265054,0.0057467449345673,0.005206637327935,0.0060059965857508,0.0054010760663226,0.0067621472350359,0.0070213988862194,0.0054442846748532,0.0076479237099129,0.0074102763629947,0.008101614099484,0.0086201174018509,0.0089657862700956,0.0079503839696269,0.0096787283108502,0.0087929518359733,0.0098731670492378,0.0106509220027883,0.0089657862700956,0.010629317698523,0.0092466422255444,0.0089009733572997,0.0079503839696269,0.0083824700549327,0.0071078161032806,0.0063084568454648,0.0051634287194044,0.0031326241184671,0.0023116605563861,0.0010154023004686,-0.0002808559554487,-0.0018795744710802,-0.0033054585525894,-0.0042560479402622,-0.0068917730606277,-0.0065677084966483,-0.0089657862700956,-0.0090522034871568,-0.008922577661565,-0.0111910296094205,-0.0100676057876254,-0.0111478210008899,-0.0111262166966247,-0.0108885693497065,-0.0104564832644006,-0.0089009733572997,-0.0094626852681973,-0.0074534849715252,-0.0070213988862194,-0.0073238591459335,-0.0050770115023433,-0.0052282416322003,-0.0050986158066086,-0.0052498459364656,-0.0061788310198731,-0.0083824700549327,-0.0083392614464022,-0.0123792663440115,-0.0138699633383166,-0.0171538175866408,-0.0219067645250047,-0.0235054830406362,-0.0269621717230827,-0.0306781120567127,-0.0330329812216294,-0.0353230374737502,-0.0383044314623604,-0.0393630423713596,-0.0409401565827258,-0.0423012277514391,-0.0417827244490722,-0.0436839032244177,-0.0424092492727656,-0.0428629396623367,-0.0414154512765622,-0.0410049694955217,-0.0407673221486035,-0.0383044314623604,-0.0383692443751562,-0.0363168354699536,-0.0349125556927097,-0.0358847493846478,-0.0325144779192624,-0.0327521252661806,-0.0315638885315897,-0.0311101981420186,-0.0304188604055292,-0.0301164001458152,-0.0303540474927334,-0.0293818538007953,-0.0296843140605094,-0.0296843140605094,-0.0286257031515101,-0.0287769332813672,-0.0289281634112242,-0.0279991783278167,-0.0279775740235514,-0.0277831352851638,-0.026681315767634,-0.0275670922425109,-0.0264652727249811,-0.0259899780311447,-0.027502279329715,-0.0253634532074512,-0.0259899780311447,-0.0258603522055529,-0.0258819565098182,-0.0251690144690636,-0.0267245243761645,-0.026314042595124,-0.0268109415932257,-0.028539285934449,-0.0284528687173878,-0.0294034581050606,-0.0299219614074276,-0.0318015358785079,-0.0321472047467525,-0.0340483835220981,-0.0365328785126065,-0.0367489215552594,-0.0397087112396042,-0.041177803929644,-0.0424740621855615,-0.0466869015172931,-0.0472486134281907,-0.0505756762850455,-0.0531465884926151,-0.0561711910897558,-0.0584396430376113,-0.0611833896793032,-0.0649857472299944,-0.0672758034821152,-0.0709269309029493,-0.0745780583237834,-0.0762631940564761,-0.078855710568311,-0.0813186012545541,-0.0822475863379616,-0.0836518661152055,-0.0844512253730213,-0.081901917469717,-0.0804328247796772,-0.0763496112735373,-0.0718343116820915,-0.0659579409219325,-0.0561279824812252,-0.0459739594765385,-0.0341780093476898,-0.0188389533193334,-0.002009200296672,0.0160519980691109,0.0382396185495645,0.0604056347257527,0.0859419223673263,0.11299051130747,0.138332360210656,0.167346940838942,0.193315314565821,0.22001823463772,0.243826177938071,0.267158826544585,0.288179814594713,0.306003365613577,0.322271406725341,0.33516917637172,0.344696674552713,0.352690267130871,0.356687063419949,0.356989523679663,0.355001927687257,0.349319995665485,0.339684475963166,0.329400827132887,0.314969151883673,0.299781325985174,0.283210824613696,0.26236267099769,0.243804573633805,0.222934815713535,0.202086662097529,0.180763213787687,0.16019591612713,0.13859161186184,0.118024314201283,0.0978026854089709,0.0769545317929654,0.0580939741693666,0.0392334165457679,0.0219067645250047,0.0039751919848134,-0.012120014692828,-0.0283664515003266,-0.0436622989201524,-0.0560847738726946,-0.0699979458195418,-0.0810161409948401,-0.0910837467824655,-0.103138948562498,-0.108777671975739,-0.116555221511243,-0.121697045926382,-0.12638517995195,-0.127573416686542,-0.129647429896009,-0.129431386853357,-0.128005502771847,-0.126104323996502,-0.122669239618321,-0.11739778937759,-0.112882489786144,-0.107286974981434,-0.101216165482887,-0.0951237516800749,-0.0899603229606704,-0.0821611691209005,-0.0772569920526795,-0.0711213696413369,-0.064812912795872,-0.0617234972859355,-0.0559983566556334,-0.0524120421475952,-0.0480479726860065,-0.0453690389571104,-0.0416098900149498,-0.0406160920187465,-0.0379155539855851,-0.0372026119448305,-0.0361656053400966,-0.0348261384756485,-0.0370081732064429,-0.0350421815183015,-0.0370513818149735,-0.0369217559893818,-0.0380019712026463,-0.0378723453770545,-0.0398599413694613,-0.0401840059334406,-0.0415666814064192,-0.0421932062301127,-0.0420635804045209,-0.0437703204414789,-0.0434894644860301,-0.0442888237438459,-0.0438567376585401,-0.0445048667864988,-0.0448505356547434,-0.0433598386604384,-0.043705507528683,-0.0426901052282144,-0.0431870042263161,-0.0432302128348466,-0.0411345953211134,-0.041177803929644,-0.0406160920187465,-0.0392982294585637,-0.0391902079372373,-0.0395574811097472,-0.0377643238557281,-0.037829136768524,-0.0371161947277694,-0.0354958719078726,-0.0378723453770545,-0.0354958719078726,-0.036640900033933,-0.036122396731566,-0.0366625043381983,-0.0361440010358313,-0.0360791881230354,-0.036943360293647,-0.0364248569912801,-0.0372890291618917,-0.0375482808130752,-0.0382396185495645,-0.0368137344680553,-0.0384340572879521,-0.0376346980301363,-0.038498870200748,-0.0388877476775232,-0.0374834679002793,-0.038801330460462,-0.0380019712026463,-0.0382828271580951,-0.0392982294585637,-0.0369865689021776,-0.0377211152471975,-0.0373970506832181,-0.0367489215552594,-0.0358199364718519,-0.0364032526870148,-0.0346965126500568,-0.0346965126500568,-0.0341996136519551,-0.0328169381789765,-0.0331193984386906,-0.0314342627059979,-0.031736722965712,-0.0306565077524474,-0.0305052776225904,-0.0305052776225904,-0.0288201418898977,-0.0291442064538771,-0.0286689117600407,-0.0279127611107555,-0.0294250624093259,-0.0272862362870621,-0.0281936170662043,-0.028020782632082,-0.0283232428917961,-0.0269189631145522,-0.0278263438936944,-0.0278047395894291,-0.0276319051553067,-0.0279343654150208,-0.0276103008510415,-0.0277399266766332,-0.0266597114633687,-0.0269405674188174,-0.0260115823354099,-0.0256875177714306,-0.0253634532074512,-0.0241320078643297,-0.0245640939496355,-0.0230085840425345,-0.0231382098681263,-0.0223604549145758,-0.0217123257866171,-0.0203080460093732,-0.0204160675306997,-0.0190117877534558,-0.0191198092747822,-0.0189469748406599,-0.0172186304994366,-0.0176291122804772,-0.0163760626330903,-0.0152526388112952,-0.0167433358056002,-0.0144100709449488,-0.0146693225961323,-0.0136971289041943,-0.0134810858615413,-0.0126817266037256,-0.0127681438207868,-0.0127033309079909,-0.0122064319098892,-0.0122928491269504,-0.0125304964738686,-0.010629317698523,-0.0108669650454412,-0.0104780875686659,-0.0099379799620337,-0.0093978723554014,-0.0097867498321766,-0.0077127366227087,-0.0080584054909534,-0.007215837624607,-0.0052930545449962,-0.0062652482369343,-0.0043424651573234,-0.0047097383298333,-0.0027869552502224,-0.0023980777734472,-0.002009200296672,0.0002160430426529,0.0007777549535504,0.0023980777734472,0.0029597896843448,0.0041264221146705,0.0060492051942813,0.0079935925781575,0.0087065346189121,0.0108021521326453,0.012120014692828,0.0136107116871331,0.0163112497202944,0.0174994864548854,0.0200487943581897,0.0218419516122088,0.0227061237828205,0.0267893372889604,0.0285824945429795,0.0302244216671416,0.0327737295704459,0.0356471020377296,0.0368353387723206,0.0394062509798902,0.0411994082339093,0.0439215505713359,0.0457363121296204,0.0478535339476188,0.049949151461352,0.0517639130196365,0.0538595305333697,0.0550693715722259,0.0561063781769599,0.0592822109039576,0.0595630668594064,0.0613562241134255,0.0634518416271587,0.0625228565437512,0.0655258548366266,0.065482646228096,0.066368422702973,0.0664980485285647,0.0678159110887474,0.0670165518309317,0.0680535584356656,0.067859119697278,0.0687448961721549,0.0694578382129095,0.0675998680460945,0.0696954855598277,0.0682912057825838,0.0690257521276037,0.068226392869788,0.0692850037787872,0.0683344143911144,0.0687665004764202,0.0685720617380326,0.0682479971740533,0.068226392869788,0.0689609392148078,0.0686152703465632,0.0678375153930127,0.0684208316081756,0.0674702422205028,0.0660659624432589,0.0671029690479929,0.0655474591408919,0.0656770849664837,0.0658067107920754,0.0627388995864041,0.0644024310148315,0.0619395403285884,0.0613130155048949,0.0600599658575081,0.0594334410338147,0.0586556860802642,0.0569489460433062,0.0563224212196128,0.0546156811826548,0.0532114014054109,0.0531681927968804,0.0520663732793505,0.0503596332423926,0.0497115041144338,0.048609684596904,0.0469029445599461,0.047788721034823,0.045930750868008,0.0457579164338856,0.0449585571760699,0.043554277398826,0.0439863634841318,0.0433382343561731,0.0423876449685003,0.0426685009239491,0.0418691416661333,0.0404648618888894,0.0413722426680316,0.0396655026310737,0.0394926681969513,0.039168603632972,0.0368569430765859,0.0375914894216058,0.0362088139486272,0.0346749083457915,0.0337243189581187,0.0327953338747112,0.030029982928754,0.0292306236709383,0.0276751137638373,0.0256659134671653,0.0242616336899214,0.0216475128738212,0.0208481536160055,0.018061198365783,0.0172618391079672,0.0149501785515811,0.0123144534312156,0.011968784562971,0.0099379799620337,0.0085120958805245,0.0083176571421369,0.0053794717620573,0.0057899535430979,0.0042128393317316,0.0033918757696506,0.0018147615582844,0.0014690926900397,0.000669733432224,-0.000302460259714,-0.0007993592578157,-0.0019227830796108,-0.0016635314284273,-0.0027869552502224,-0.0023764734691819,-0.0036511274208341,-0.0035431058995076,-0.0046665297213027,-0.0053362631535268,-0.0057035363260367,-0.0068269601478318,-0.0070213988862194,-0.0081664270122798,-0.0101972316132172,-0.0090522034871568,-0.0104780875686659,-0.0111478210008899,-0.0113638640435429,-0.0116015113904611,-0.0134810858615413,-0.012638517995195,-0.0137835461212554,-0.0140211934681736,-0.0133298557316843,-0.0151014086814381,-0.0138051504255207,-0.0146693225961323,-0.0141508192937654,-0.0141076106852348,-0.0142156322065612,-0.012789748125052,-0.0135242944700719,-0.0125737050823991,-0.0123792663440115,-0.0131138126890314,-0.01078054782838,-0.0111910296094205,-0.0108453607411759,-0.0100243971790948,-0.0098299584407072,-0.0107157349155841,-0.0092898508340749,-0.0101756273089519,-0.0093762680511361,-0.0082960528378716,-0.0101324187004213,-0.0078423624483005,-0.0092250379212791,-0.0087929518359733,-0.0089657862700956,-0.008101614099484,-0.0095058938767279,-0.0081880313165451,-0.0093114551383402,-0.0087497432274427,-0.007734340926974,-0.0094626852681973,-0.0075399021885864,-0.0087929518359733,-0.0077559452312393,-0.0082312399250757,-0.0083824700549327,-0.0079287796653616,-0.0085553044890551,-0.0079287796653616,-0.0080584054909534,-0.0095707067895237,-0.0072806505374029,-0.0077127366227087,-0.0076911323184434,-0.007215837624607,-0.0062868525411995,-0.0067405429307706,-0.0059411836729549,-0.0054658889791185,-0.0045152995914457,-0.0032838542483241,-0.0036943360293647,-0.0018363658625497,-0.0022468476435902,-0.000972193691938,-0.0004752946938363,0.0007993592578157,0.0015987185156315,0.0018147615582844,0.0026141208161001,0.0029813939886101,0.0042344436359969,0.0036727317250994,0.0054010760663226,0.004688134025568,0.005055407198078,0.0046449254170374,0.0060708094985466,0.0050338028938127,0.0052282416322003,0.0049689899810168,0.0048609684596904,0.0056819320217714,0.0046449254170374,0.0056171191089755,0.005206637327935,0.0054010760663226,0.0049905942852821,0.005357867457792,0.0064596869753219,0.0057467449345673,0.0068701687563624,0.0073670677544641,0.0062004353241384,0.0088361604445038,0.0082744485336063,0.008771347531708,0.0089657862700956,0.0103916703516048,0.0102836488302783,0.0106509220027883,0.0111694253051552,0.0115366984776652,0.0123792663440115,0.0127681438207868,0.0136323159913984,0.0135891073828678,0.0146045096833365,0.0147341355089282,0.0147125312046629,0.0160736023733762,0.0155983076795398,0.0164840841544168,0.0181044069743136,0.0157495378093969,0.0176075079762119,0.0168081487183961,0.0168513573269267,0.0177371338018036,0.0179315725401912,0.0162248325032333,0.0177803424103342,0.0171538175866408,0.0174130692378242,0.0177803424103342,0.0167649401098655,0.0179099682359259,0.0169377745439879,0.017391464933559,0.0170025874567837,0.0171322132823755,0.0185364930596194,0.0175642993676813,0.0184932844510888,0.0185580973638847,0.0168513573269267,0.0188389533193334,0.0187525361022723,0.0186877231894764,0.0185148887553541,0.0186661188852111,0.0173050477164978,0.01821242849564,0.0171754218909061,0.0174778821506201,0.0180828026700483,0.0152958474198258,0.0170890046738449,0.0152094302027646,0.0157495378093969,0.0150365957686423,0.0149501785515811,0.0148421570302547,0.0145613010748059,0.0144532795534794,0.0138699633383166,0.0137403375127248,0.0136107116871331,0.0144100709449488,0.013826754729786,0.0141724235980306,0.0135891073828678,0.0139131719468472,0.0142588408150918,0.013826754729786,0.0143020494236224,0.0138915676425819,0.0146693225961323,0.0136323159913984,0.0151878258984993,0.0141292149895001,0.0144532795534794,0.0138699633383166,0.0137403375127248,0.0143884666406836,0.0134810858615413,0.0138051504255207,0.0135242944700719,0.0114070726520734,0.0132650428188884,0.0125304964738686,0.0117959501288487,0.0114934898691346,0.0116663243032569,0.0098731670492378,0.0106509220027883,0.0098947713535031,0.0094626852681973,0.0094842895724626,0.0081232184037493,0.0085769087933204,0.0075182978843211,0.0078423624483005,0.0072374419288723,0.0064812912795872,0.0070862117990153,0.005725140630302,0.0066325214094442,0.0066325214094442,0.0040400048976093,0.0060276008900161,0.0047961555468945,0.0050986158066086,0.0044936952871804,0.003867170463487,0.0027869552502224,0.0039967962890787,0.0026141208161001,0.0027437466416919,0.003499897290977,0.0005833162151628,0.0022468476435902,0.0009937979962033,0.0005185033023669,4.32086085305814E-05,-0.0001296258255917,-0.0015123012985703,-0.0007777549535504,-0.0018795744710802,-0.0015987185156315,-0.0011882367345909,-0.0036511274208341,-0.0020308046009373,-0.0035863145080382,-0.0036511274208341,-0.0042992565487928,-0.0046665297213027,-0.0050338028938127,-0.0060059965857508,-0.0065244998881177,-0.00706460749475,-0.0098731670492378,-0.0090305991828915,-0.0106509220027883,-0.0114934898691346,-0.0121848276056239,-0.0121416189970933,-0.0142156322065612,-0.0150798043771729,-0.0156415162880704,-0.0174130692378242,-0.0182772414084359,-0.0190117877534558,-0.0194222695344963,-0.0204592761392302,-0.0204160675306997,-0.0208265493117402,-0.0221660161761882,-0.0207617363989443,-0.021777138699413,-0.0208265493117402,-0.0203296503136385,-0.0224252678273717,-0.0202432330965773,-0.021258635397046,-0.0210641966586584,-0.0211506138757195,-0.0215610956567601,-0.0228789582169428,-0.0211506138757195,-0.0224684764359023,-0.0221012032633923,-0.022965375434004,-0.0245856982539008,-0.0237647346918197,-0.0249097628178801,-0.0256011005543694,-0.0262924382908587,-0.0263788555079199,-0.0284528687173878,-0.0280639912406126,-0.029511479626387,-0.029878752798897,-0.0288849548026936,-0.0318447444870384,-0.030699716360978,-0.0321256004424872,-0.0323200391808748,-0.0329897726130988,-0.0334866716112005,-0.0335298802197311,-0.0341780093476898,-0.0340699878263634,-0.0345668868244651,-0.035971166601709,-0.0341564050434245,-0.0354094546908114,-0.0355822891249337,-0.035452663299342,-0.0350205772140362,-0.0365760871211371,-0.035971166601709,-0.0367489215552594,-0.0369217559893818,-0.0363168354699536,-0.0387797261561968,-0.0372674248576264,-0.0391037907201761,-0.0392550208500331,-0.0400327758035836,-0.0395790854140125,-0.0404864661931547,-0.0409617608869911,-0.0415666814064192,-0.0418691416661333,-0.0417179115362763,-0.0438567376585401,-0.0426468966196838,-0.0446128883078252,-0.0446128883078252,-0.0450881830016616,-0.0444832624822335,-0.0458659379552121,-0.045412247565641,-0.0458659379552121,-0.0461900025191915,-0.0458875422594774,-0.0465140670831708,-0.0462116068234567,-0.0466869015172931,-0.0464060455618444,-0.0467301101258237,-0.0475294693836395,-0.0457147078253551,-0.0469677574727419,-0.046233211127722,-0.0456714992168245,-0.0478319296433535,-0.0455850819997633,-0.0463844412575791,-0.0459523551722733,-0.0461467939106609,-0.0454338518699063,-0.046233211127722,-0.0454986647827022,-0.0458659379552121,-0.0454554561741716,-0.0441159893097235,-0.0461467939106609,-0.0449801614803352,-0.0456498949125592,-0.0447857227419476,-0.0454554561741716,-0.0453474346528451,-0.0443536366566417,-0.0451529959144575,-0.0444616581779682,-0.0451097873059269,4,0,24,15,0
-0.0706592042234159,-0.0706592042234159,-0.0781878208776311,-0.0753057723146893,-0.0636991549727742,-0.0538374513866537,-0.0248405138044028,0.0006862020387956,0.0076462512894373,0.0256247447058836,0.0389762758035934,0.0488379793897139,0.0656597322264761,0.0557980286403556,0.0430346707187563,0.0476812388100298,0.0360746214681146,0.0291145722174729,0.0256247447058836,0.019841041807463,0.0186646954552419,0.0204096092110366,0.0238994367226259,0.0482498062136033,0.0842263988190329,0.128888348658362,0.192116965090248,0.258247235857612,0.30581084003242,0.349884616695638,0.39282125855171,0.417171628042687,0.399193134626241,0.329592642119824,0.261717457596664,0.225172297587661,0.192116965090248,0.192116965090248,0.184568742663495,0.160218373172518,0.148023582654492,0.107420027730326,0.0476812388100298,-0.0155473776218559,-0.0979112280498721,-0.184353079165588,-0.237719992011353,-0.278323546935519,-0.310222138853249,-0.311967052609044,-0.314868706944523,-0.324730410530643,-0.328200632269695,-0.346767298862252,-0.359530656783852,-0.345610558282568,-0.335160681520337,-0.312535620012617,-0.289930164277435,-0.277735373759409,-0.260345053519073,-0.243523300682311,-0.228426855828806,-0.205233226917513,-0.17796159731852,-0.147219745980475,-0.101989228737572,-0.0764625128943735,-0.0596407600576113,-0.0341140442144127,-0.0236641674521817,-0.0155473776218559,0.0035878563742744,-0.0010391059444619,-0.0085873283712142,0.0001176346352221,-0.006273847211846,-0.0109008095305824,-0.0120771558828036,-0.0225074268724976,-0.0225074268724976,-0.0230956000486081,-0.0323691304586181,-0.0346826116179863,-0.0329573036347286,-0.0294674761231393,-0.0074305877915301,0.0047445969539585,0.0122928193807108,0.0326043997290623,0.0412897569629616,0.0459363250542351,0.0604445967316291,0.0465244982303457,0.0291145722174729,0.0256247447058836,0.014606300540079,0.0070776838858638,-0.0004705385408884,-0.0132338964624877,-0.0138024638660612,-0.0080187609676407,-0.0097440689508983,-0.0056856740357354,-0.0016272791205725,-0.0033721928763672,0.0128809925568213,0.0244680041261995,0.0331729671326358,0.0482498062136033,0.0465244982303457,0.0430346707187563,0.0488379793897139,0.0273696584616783,0.0140377331365054,0.0169393874719842,0.0111360788010267,0.0082344244655479,0.0030192889707009,-0.0132338964624877,-0.0103322421270089,0.0024311157945903,0.0059209433061796,0.0076462512894373,0.0140377331365054,0.0204096092110366,0.0436228438948669,0.0523082011287662,0.0528963743048768,0.0598564235555185,0.0511514605490821,0.0453481518781245,0.0610131641352026,0.0511514605490821,0.0465244982303457,0.0488379793897139,0.0401330163832775,0.0372313620477987,0.0337611403087464,0.0256247447058836,0.0291145722174729,0.0291145722174729,0.0157826468923001,0.0151944737161896,0.0227426961429418,0.0314280533768412,0.0523082011287662,0.0581115097997238,0.0575429423961503,0.064502991646792,0.0616013373113132,0.0598564235555185,0.0668164728061602,0.0488379793897139,0.0459363250542351,0.0505828931455086,0.0436228438948669,0.0360746214681146,0.0314280533768412,0.0262129178819941,0.0308594859732676,0.0314280533768412,0.0238994367226259,0.0233112635465154,0.0273696584616783,0.0343297077123199,0.0598564235555185,0.0737765220568019,0.0813247444835541,0.0929313618254693,0.0964015835645216,0.0975583241442057,0.107420027730326,0.0911864480696746,0.0830696582393488,0.085383139398717,0.0761096089887071,0.0743646952329124,0.0726197814771178,0.0586996829758344,0.055209855464245,0.0528963743048768,0.0453481518781245,0.0453481518781245,0.0523082011287662,0.0575429423961503,0.0784230901480753,0.0882847937341958,0.0911864480696746,0.0969897567406322,0.0969897567406322,0.0993032379000004,0.10857676831001,0.0871280531545117,0.0813247444835541,0.08016800390387,0.0691299539655284,0.0650715590503655,0.0685613865619549,0.0726197814771178,0.0813247444835541,0.08016800390387,0.0743646952329124,0.0784230901480753,0.0871280531545117,0.0911864480696746,0.106851460326753,0.113223336401284,0.124829953743199,0.137593311664798,0.134691657329319,0.13120182981773,0.138161879068372,0.12134012623161,0.117281731316447,0.113811509577394,0.0964015835645216,0.0871280531545117,0.0789916575516489,0.0714630408974336,0.0795798307277595,0.0859517068022906,0.085383139398717,0.0894415343138799,0.0940881024051534,0.0987150647238898,0.12192829940772,0.135260224732893,0.146866842074808,0.162531854331886,0.173550298497691,0.181667088328017,0.189215310754769,0.168335163002844,0.161375113752202,0.156140372484818,0.145121928319013,0.139318619648056,0.134691657329319,0.131790002993841,0.143396620335756,0.151513410166082,0.147455015250919,0.150925236989971,0.159630199996407,0.168335163002844,0.196175360005411,0.210095458506694,0.217643680933446,0.227505384519567,0.226329038167345,0.229230692502824,0.243738964180218,0.229230692502824,0.226329038167345,0.224015557007977,0.214153853421857,0.214742026597967,0.214153853421857,0.20893871792701,0.21880042151313,0.224603730184088,0.222270643252183,0.233877260594098,0.247228791691808,0.258247235857612,0.284930692280495,0.297694050202094,0.304654099452736,0.304065926276625,0.290145827775342,0.28259760534859,0.289557654599231,0.272735901762469,0.276794296677632,0.276794296677632,0.262874198176349,0.257070889505391,0.257659062681502,0.259403976437296,0.272167334358896,0.28259760534859,0.284342519104384,0.291890741531137,0.300007531361462,0.308712494367899,0.330749382699508,0.333062863858876,0.330161209523397,0.334807777614671,0.331906123279192,0.322632592869182,0.319730938533703,0.293616049514394,0.288400914019547,0.276794296677632,0.25997254384087,0.253600667766339,0.25128718660697,0.244895704759902,0.248385532271492,0.248385532271492,0.240249136668629,0.240249136668629,0.242582223600534,0.240837309844739,0.255345581522133,0.255345581522133,0.257070889505391,0.258247235857612,0.25069901343086,0.243738964180218,0.24142548302085,0.212408939666062,0.209507285330583,0.206037063591531,0.18572548324318,0.168335163002844,0.15441506450156,0.136436571085114,0.13120182981773,0.124241780567088,0.109753114662231,0.103361632815163,0.103361632815163,0.105675113974531,0.124829953743199,0.127731608078678,0.127731608078678,0.126574867498994,0.116124990736763,0.109753114662231,0.109164941486121,0.0795798307277595,0.0755214358125965,0.064502991646792,0.0494261525658245,0.0412897569629616,0.0285263990413624,0.0204096092110366,0.0244680041261995,0.0209977823871471,0.0117046462046002,0.0151944737161896,0.0169393874719842,0.0204096092110366,0.0383881026274829,0.0366627946442252,0.0360746214681146,0.0407211895593881,0.0337611403087464,0.0308594859732676,0.0372313620477987,0.014606300540079,0.0157826468923001,0.0105479056249161,-0.0004705385408884,-0.0068424146154195,-0.0120771558828036,-0.0138024638660612,-0.0068424146154195,-0.0056856740357354,-0.0103322421270089,-0.0074305877915301,-0.0016272791205725,0.0047445969539585,0.0221545229668312,0.019841041807463,0.0256247447058836,0.0372313620477987,0.0331729671326358,0.0337611403087464,0.0401330163832775,0.0157826468923001,0.014606300540079,0.0070776838858638,-0.0010391059444619,-0.0016272791205725,-0.0126457232863771,-0.031212389878934,-0.036427525373781,-0.0387606123056862,-0.0428190072208491,-0.0352707847940969,-0.0271539949637711,-0.0178608587812241,0.004176029550385,0.0082344244655479,0.0175079548755578,0.0215663497907207,0.0122928193807108,0.0064895107097532,0.0018429426184797,-0.0283107355434552,-0.0242523406282923,-0.0288989087195657,-0.0358589579702074,-0.0381724391295756,-0.0422308340447385,-0.0428190072208491,-0.036427525373781,-0.0381724391295756,-0.041662266641165,-0.031212389878934,-0.0178608587812241,-0.006273847211846,0.0244680041261995,0.0383881026274829,0.0389762758035934,0.0424661033151828,0.0366627946442252,0.0354864482920041,0.0389762758035934,0.0076462512894373,0.0030192889707009,-0.0056856740357354,-0.0230956000486081,-0.0370156985498915,-0.052092537630859,-0.0578958463018166,-0.0474459695395856,-0.0422308340447385,-0.0445443152041068,-0.0433875746244227,-0.0387606123056862,-0.0288989087195657,-0.0033721928763672,0.0012743752149062,0.0064895107097532,0.009391165045232,0.004176029550385,0.0064895107097532,0.0134495599603949,-0.0091755015473248,-0.0039407602799407,-0.006273847211846,-0.0143906370421718,-0.01670411820154,-0.0201939457131294,-0.0283107355434552,-0.0277225623673446,-0.0306242167028234,-0.0323691304586181,-0.0277225623673446,-0.0184490319573347,-0.0022154522966831,0.0273696584616783,0.0308594859732676,0.0378195352239093,0.0389762758035934,0.0297027453935835,0.0291145722174729,0.0285263990413624,-0.0027840197002566,0.0012743752149062,-0.0004705385408884,-0.0097440689508983,-0.0138024638660612,-0.0190372051334452,-0.021938859468924,-0.0132338964624877,-0.0138024638660612,-0.0184490319573347,-0.0155473776218559,-0.0143906370421718,-0.0120771558828036,0.0047445969539585,0.0035878563742744,0.0111360788010267,0.0122928193807108,0.004176029550385,0.0064895107097532,0.014606300540079,-0.0074305877915301,0.0018429426184797,0.0012743752149062,-0.0004705385408884,-0.0039407602799407,-0.0143906370421718,-0.0201939457131294,-0.011488982706693,-0.0161355507979665,-0.0225074268724976,-0.0149788102182823,-0.0039407602799407,0.0117046462046002,0.0297027453935835,0.0215663497907207,0.0238994367226259,0.0314280533768412,0.0285263990413624,0.0279578316377888,0.0314280533768412,0.0059209433061796,0.0140377331365054,0.0099793382213425,0.0006862020387956,0.0024311157945903,-0.0022154522966831,-0.0103322421270089,-0.0091755015473248,-0.0155473776218559,-0.0161355507979665,-0.006273847211846,0.004176029550385,0.0175079548755578,0.0459363250542351,0.0476812388100298,0.0470930656339192,0.0424661033151828,0.0320162265529517,0.0354864482920041,0.0424661033151828,0.0180961280516683,0.0227426961429418,0.0122928193807108,0.0006862020387956,-0.0016272791205725,-0.0056856740357354,-0.0085873283712142,-0.0039407602799407,-0.0074305877915301,-0.0097440689508983,-0.0039407602799407,0.0006862020387956,0.0088029918691214,0.0337611403087464,0.0337611403087464,0.039564448979704,0.0494261525658245,0.0476812388100298,0.0523082011287662,0.0604445967316291,0.0360746214681146,0.0366627946442252,0.0128809925568213,-0.0039407602799407,-0.0051171066321619,-0.0132338964624877,-0.0201939457131294,-0.0225074268724976,-0.031212389878934,-0.0335258710383022,-0.0259972543840869,-0.0196057725370188,-0.0080187609676407,0.019841041807463,0.0268010910581047,0.0366627946442252,0.0424661033151828,0.0412897569629616,0.0488379793897139,0.0534845474809874,0.0331729671326358,0.0412897569629616,0.0308594859732676,0.0169393874719842,0.0128809925568213,0.0047445969539585,0.0001176346352221,0.0001176346352221,-0.0091755015473248,-0.0155473776218559,-0.0138024638660612,-0.0120771558828036,-0.0016272791205725,0.0186646954552419,0.0157826468923001,0.0244680041261995,0.0331729671326358,0.0291145722174729,0.0366627946442252,0.039564448979704,0.0157826468923001,0.0268010910581047,0.0244680041261995,0.0157826468923001,0.0128809925568213,0.0047445969539585,0.0024311157945903,0.0099793382213425,0.0059209433061796,0.0001176346352221,0.0030192889707009,0.0053327701300691,0.0175079548755578,0.0465244982303457,0.0534845474809874,0.0627580778909973,0.0604445967316291,0.0505828931455086,0.0598564235555185,0.0604445967316291,0.0349178808884305,0.0441914112984404,0.0326043997290623,0.019841041807463,0.0134495599603949,0.0030192889707009,0.0035878563742744,0.0157826468923001,0.0175079548755578,0.0204096092110366,0.0285263990413624,0.0331729671326358,0.0441914112984404,0.0656597322264761,0.0650715590503655,0.069718127141639,0.0732079546532283,0.0743646952329124,0.0882847937341958,0.0946566698087269,0.0807365713074436,0.101048151655795,0.0975583241442057,0.0882847937341958,0.0900297074899905,0.085383139398717,0.0807365713074436,0.0778349169719648,0.0720316083010072,0.0708748677213231,0.0789916575516489,0.0871280531545117,0.105106546570958,0.126574867498994,0.125986694322883,0.140494966000277,0.148023582654492,0.142808447159645,0.149180323234176,0.149180323234176,0.128300175482251,0.141063533403851,0.137005138488688,0.128888348658362,0.130633262414156,0.127143434902567,0.124241780567088,0.128300175482251,0.12192829940772,0.116713163912873,0.118438471896131,0.120771558828036,0.132358570397414,0.148023582654492,0.145710101495124,0.152670150745766,0.155571805081244,0.152081977569655,0.161943681155776,0.161943681155776,0.142808447159645,0.148611755830603,0.138750052244482,0.128888348658362,0.12134012623161,0.108008200906437,0.102773459639053,0.0993032379000004,0.0842263988190329,0.0772663495683912,0.074933262636486,0.0784230901480753,0.0888533611377694,0.104518373394847,0.105675113974531,0.113223336401284,0.113223336401284,0.107420027730326,0.113811509577394,0.114968250157079,0.0911864480696746,0.090598274893564,0.0708748677213231,0.0494261525658245,0.0360746214681146,0.0140377331365054,0.0006862020387956,-0.0010391059444619,-0.011488982706693,-0.0155473776218559,-0.0155473776218559,-0.0196057725370188,-0.0103322421270089,0.0105479056249161,0.0082344244655479,0.0111360788010267,0.0128809925568213,0.0088029918691214,0.0186646954552419,0.0157826468923001,-0.0138024638660612,-0.0074305877915301,-0.0126457232863771,-0.0207625131167029,-0.0277225623673446,-0.0381724391295756,-0.0352707847940969,-0.0294674761231393,-0.0358589579702074,-0.0370156985498915,-0.0346826116179863,-0.0318005630550445,-0.0161355507979665,-0.0004705385408884,-0.006273847211846,-0.0004705385408884,-0.0004705385408884,-0.0045289334560513,-0.0045289334560513,-0.0143906370421718,-0.0323691304586181,-0.0172922913776506,-0.0230956000486081,-0.0283107355434552,-0.0265658217876605,-0.0306242167028234,-0.0323691304586181,-0.0277225623673446,-0.0294674761231393,-0.0329573036347286,-0.0300556492992498,-0.0259972543840869,-0.0074305877915301,0.0105479056249161,0.0059209433061796,0.009391165045232,0.004176029550385,-0.0022154522966831,0.0059209433061796,0.0024311157945903,-0.0161355507979665,-0.006273847211846,-0.0149788102182823,-0.0242523406282923,-0.0248405138044028,-0.0294674761231393,-0.0259972543840869,-0.021938859468924,-0.0329573036347286,-0.0375842659534651,-0.0329573036347286,-0.0300556492992498,-0.0103322421270089,0.0128809925568213,0.0134495599603949,0.0227426961429418,0.0215663497907207,0.019841041807463,0.0308594859732676,0.0244680041261995,0.0082344244655479,0.0169393874719842,0.0082344244655479,0.0030192889707009,0.0030192889707009,-0.0039407602799407,-0.0004705385408884,0.014606300540079,0.0157826468923001,0.0215663497907207,0.0337611403087464,0.055209855464245,0.0946566698087269,0.123085039987404,0.12134012623161,0.124241780567088,0.119026645072241,0.111478422645489,0.120183385651926,0.110321682065805,0.0859517068022906,0.0888533611377694,0.0789916575516489,0.0789916575516489,0.100459978479685,0.125986694322883,0.173550298497691,0.227505384519567,0.269265680023417,0.318574197954019,0.3667063695324,0.41195649254784,0.47634184955941,0.500123651646814,0.457775182966853,0.41195649254784,0.355119357963022,0.297694050202094,0.271010593779211,0.256502322101817,0.226917211343456,0.203135409256052,0.156728545660929,0.105106546570958,0.0389762758035934,-0.0555823651424484,-0.145494437997217,-0.228426855828806,-0.300360435267129,-0.345022385106458,-0.372862582109024,-0.390272508121897,-0.385625940030624,-0.382155718291571,-0.393174162457376,-0.384469199450939,-0.370549100949656,-0.348512212618047,-0.309065398273565,-0.285283596186161,-0.267305102769715,-0.23366159709619,-0.219741498594907,-0.199429918246556,-0.173334634999784,-0.154767968407227,-0.132142906899507,-0.107204364232419,-0.0897944382195463,-0.0677575498879371,-0.0486223158918067,-0.0335258710383022,-0.0016272791205725,0.0291145722174729,0.0407211895593881,0.0534845474809874,0.0534845474809874,0.0528963743048768,0.0650715590503655,0.055209855464245,0.039564448979704,0.0436228438948669,0.0366627946442252,0.0360746214681146,0.0436228438948669,0.0436228438948669,0.0488379793897139,0.0534845474809874,0.0488379793897139,0.0494261525658245,0.0563862018164662,0.0586996829758344,0.0708748677213231,0.0807365713074436,0.0755214358125965,0.0737765220568019,0.0581115097997238,0.0441914112984404,0.0494261525658245,0.0354864482920041,0.0209977823871471,0.0291145722174729,0.019841041807463,0.0140377331365054,0.0134495599603949,0.0059209433061796,0.0059209433061796,0.004176029550385,-0.0051171066321619,0.0001176346352221,0.0070776838858638,0.0151944737161896,0.0407211895593881,0.0581115097997238,0.0546412880606715,0.0610131641352026,0.0616013373113132,0.0586996829758344,0.0668164728061602,0.0598564235555185,0.0511514605490821,0.0586996829758344,0.0511514605490821,0.0441914112984404,0.044779584474551,0.0331729671326358,0.0343297077123199,0.0383881026274829,0.0326043997290623,0.0331729671326358,0.0401330163832775,0.044779584474551,0.064502991646792,0.0766781763922807,0.0789916575516489,0.0859517068022906,0.0795798307277595,0.0772663495683912,0.090598274893564,0.0795798307277595,0.0679732133858443,0.0737765220568019,0.0668164728061602,0.0627580778909973,0.0633462510671079,0.0546412880606715,0.0575429423961503,0.0616013373113132,2,1,20,15,0
-0.0367722892499244,-0.036925012186357,-0.036925012186357,-0.0372304580592221,-0.0376886268685197,-0.0379940727413848,-0.0381467956778173,-0.0381467956778173,-0.0382995186142499,-0.03891041035998,-0.0387576874235475,-0.03891041035998,-0.0390631332964126,-0.0390631332964126,-0.0393685791692777,-0.0396740250421427,-0.0396740250421427,-0.0396740250421427,-0.0398267479785753,-0.0398267479785753,-0.0396740250421427,-0.0393685791692777,-0.0399794709150078,-0.0396740250421427,-0.0392158562328451,-0.0390631332964126,-0.0390631332964126,-0.03891041035998,-0.03891041035998,-0.0384522415506824,-0.0382995186142499,-0.0386049644871149,-0.0379940727413848,-0.0376886268685197,-0.0376886268685197,-0.0375359039320871,-0.0370777351227895,-0.036925012186357,-0.0373831809956546,-0.0372304580592221,-0.0373831809956546,-0.0373831809956546,-0.0375359039320871,-0.0376886268685197,-0.0376886268685197,-0.0381467956778173,-0.0381467956778173,-0.0381467956778173,-0.03891041035998,-0.0390631332964126,-0.0392158562328451,-0.0395213021057102,-0.0399794709150078,-0.0396740250421427,-0.0398267479785753,-0.0396740250421427,-0.0398267479785753,-0.0399794709150078,-0.0398267479785753,-0.0398267479785753,-0.0396740250421427,-0.0396740250421427,-0.0393685791692777,-0.0392158562328451,-0.0390631332964126,-0.0387576874235475,-0.0390631332964126,-0.0387576874235475,-0.0390631332964126,-0.03891041035998,-0.0390631332964126,-0.0393685791692777,-0.0398267479785753,-0.0399794709150078,-0.0404376397243055,-0.0410485314700356,-0.0412012544064682,-0.0418121461521983,-0.0428812067072261,-0.0430339296436587,-0.0437975443258214,-0.0444084360715516,-0.0453247736901468,-0.0457829424994445,-0.0462411113087421,-0.0468520030544723,-0.047615617736635,-0.0480568173307734,-0.0485149861400711,-0.0492786008222338,-0.0497367696315314,-0.0500422155043965,-0.050194938440829,-0.0508058301865592,-0.0511112760594243,-0.0511112760594243,-0.0517221678051545,-0.0512639989958568,-0.0512639989958568,-0.0512639989958568,-0.0512639989958568,-0.0520276136780195,-0.0517221678051545,-0.0517221678051545,-0.0515694448687219,-0.0515694448687219,-0.0517221678051545,-0.0514167219322894,-0.051874890741587,-0.0517221678051545,-0.0515694448687219,-0.0520276136780195,-0.051874890741587,-0.0514167219322894,-0.051874890741587,-0.0521803366144521,-0.0521803366144521,-0.0523330595508846,-0.0526385054237497,-0.0524857824873172,-0.0529439512966148,-0.0529439512966148,-0.0532493971694799,-0.053554843042345,-0.0534021201059124,-0.053554843042345,-0.0537075659787775,-0.0537075659787775,-0.0537075659787775,-0.053554843042345,-0.053554843042345,-0.0534021201059124,-0.053554843042345,-0.0534021201059124,-0.053554843042345,-0.0532493971694799,-0.0530966742330473,-0.0530966742330473,-0.0530966742330473,-0.0532493971694799,-0.0526385054237497,-0.0529439512966148,-0.0526385054237497,-0.0527912283601823,-0.0529439512966148,-0.0527912283601823,-0.0529439512966148,-0.0530966742330473,-0.0532493971694799,-0.0532493971694799,-0.0537075659787775,-0.053554843042345,-0.0538602889152101,-0.0540130118516426,-0.0544711806609402,-0.0543184577245077,-0.0541657347880751,-0.0543184577245077,-0.0547766265338053,-0.0549293494702379,-0.0550820724066704,-0.0550820724066704,-0.0549293494702379,-0.0552347953431029,-0.0550820724066704,-0.0552347953431029,-0.0553875182795355,-0.0552347953431029,-0.0552347953431029,-0.0550820724066704,-0.0550820724066704,-0.0547766265338053,-0.0547766265338053,-0.0547766265338053,-0.0544711806609402,-0.0543184577245077,-0.0540130118516426,-0.0537075659787775,-0.0538602889152101,-0.0534021201059124,-0.0532493971694799,-0.0534021201059124,-0.0534021201059124,-0.0532493971694799,-0.0534021201059124,-0.0530966742330473,-0.053554843042345,-0.0537075659787775,-0.0540130118516426,-0.0540130118516426,-0.0546239035973728,-0.0549293494702379,-0.055540241215968,-0.0563038558981307,-0.0561511329616982,-0.0569147476438609,-0.0573729164531585,-0.0581365311353213,-0.0582892540717538,-0.0585946999446189,-0.0593583146267816,-0.0598164834360792,-0.0598164834360792,-0.0598164834360792,-0.0601219293089443,-0.0602746522453769,-0.0599692063725118,-0.0599692063725118,-0.0599692063725118,-0.0590528687539165,-0.0587474228810514,-0.0585946999446189,-0.0584419770081863,-0.0579838081988887,-0.0578310852624562,-0.0575256393895911,-0.0569147476438609,-0.0567620247074284,-0.0566093017709958,-0.0564565788345633,-0.0564565788345633,-0.0561511329616982,-0.0563038558981307,-0.0561511329616982,-0.0559984100252657,-0.0564565788345633,-0.0566093017709958,-0.0564565788345633,-0.0564565788345633,-0.0567620247074284,-0.0569147476438609,-0.057220193516726,-0.0575256393895911,-0.0575256393895911,-0.0578310852624562,-0.0581365311353213,-0.0581365311353213,-0.0584419770081863,-0.0578310852624562,-0.0578310852624562,-0.0582892540717538,-0.0584419770081863,-0.0581365311353213,-0.0581365311353213,-0.0579838081988887,-0.0576783623260236,-0.0578310852624562,-0.0579838081988887,-0.0576783623260236,-0.0575256393895911,-0.0576783623260236,-0.0575256393895911,-0.0570674705802935,-0.0573729164531585,-0.057220193516726,-0.0573729164531585,-0.0569147476438609,-0.0573729164531585,-0.0575256393895911,-0.0575256393895911,-0.0581365311353213,-0.0581365311353213,-0.0581365311353213,-0.0582892540717538,-0.0584419770081863,-0.0587474228810514,-0.0585946999446189,-0.058900145817484,-0.058900145817484,-0.058900145817484,-0.058900145817484,-0.0590528687539165,-0.0592055916903491,-0.0585946999446189,-0.058900145817484,-0.0585946999446189,-0.0581365311353213,-0.0581365311353213,-0.0578310852624562,-0.0576783623260236,-0.0576783623260236,-0.0573729164531585,-0.0576783623260236,-0.057220193516726,-0.057220193516726,-0.0566093017709958,-0.0566093017709958,-0.0563038558981307,-0.0559984100252657,-0.0559984100252657,-0.0556929641524006,-0.0556929641524006,-0.0559984100252657,-0.0558456870888331,-0.0558456870888331,-0.0559984100252657,-0.0558456870888331,-0.0559984100252657,-0.0558456870888331,-0.055540241215968,-0.0558456870888331,-0.0553875182795355,-0.055540241215968,-0.0553875182795355,-0.0553875182795355,-0.0550820724066704,-0.0549293494702379,-0.0549293494702379,-0.0547766265338053,-0.0549293494702379,-0.0541657347880751,-0.0540130118516426,-0.0537075659787775,-0.053554843042345,-0.0529439512966148,-0.0526385054237497,-0.0523330595508846,-0.0521803366144521,-0.0517221678051545,-0.051874890741587,-0.0512639989958568,-0.0508058301865592,-0.0511112760594243,-0.0506531072501267,-0.0509585531229917,-0.0511112760594243,-0.0511112760594243,-0.0506531072501267,-0.0512639989958568,-0.0512639989958568,-0.0523330595508846,-0.0527912283601823,-0.0529439512966148,-0.053554843042345,-0.0540130118516426,-0.0549293494702379,-0.0553875182795355,-0.0563038558981307,-0.0567620247074284,-0.057220193516726,-0.0581365311353213,-0.0587474228810514,-0.0590528687539165,-0.0593583146267816,-0.0593583146267816,-0.0598164834360792,-0.0596637604996467,-0.0596637604996467,-0.0592055916903491,-0.0585946999446189,-0.0584419770081863,-0.0579838081988887,-0.0575256393895911,-0.0569147476438609,-0.0566093017709958,-0.0558456870888331,-0.0552347953431029,-0.0550820724066704,-0.0546239035973728,-0.0541657347880751,-0.053554843042345,-0.0537075659787775,-0.0532493971694799,-0.0534021201059124,-0.0537075659787775,-0.0538602889152101,-0.0537075659787775,-0.0540130118516426,-0.0544711806609402,-0.0549293494702379,-0.0552347953431029,-0.0556929641524006,-0.0564565788345633,-0.0566093017709958,-0.057220193516726,-0.0576783623260236,-0.0570674705802935,-0.0584419770081863,-0.0584419770081863,-0.0587474228810514,-0.0595110375632141,-0.0595110375632141,-0.0596637604996467,-0.0602746522453769,-0.0602746522453769,-0.0610382669275396,-0.0613437128004047,-0.0613437128004047,-0.0614964357368372,-0.0616491586732697,-0.0621073274825674,-0.0618018816097023,-0.0622600504189999,-0.0622600504189999,-0.0619546045461348,-0.0621073274825674,-0.0619546045461348,-0.0618018816097023,-0.0616491586732697,-0.0613437128004047,-0.060885543991107,-0.0605800981182419,-0.0602746522453769,-0.0596637604996467,-0.0593583146267816,-0.0585946999446189,-0.0584419770081863,-0.0576783623260236,-0.0573729164531585,-0.0570674705802935,-0.0566093017709958,-0.0561511329616982,-0.0564565788345633,-0.0558456870888331,-0.0552347953431029,-0.0556929641524006,-0.0556929641524006,-0.0559984100252657,-0.0559984100252657,-0.0559984100252657,-0.0563038558981307,-0.0561511329616982,-0.0566093017709958,-0.0569147476438609,-0.0573729164531585,-0.0578310852624562,-0.0579838081988887,-0.0581365311353213,-0.0581365311353213,-0.0585946999446189,-0.058900145817484,-0.0585946999446189,-0.0584419770081863,-0.0579838081988887,-0.0575256393895911,-0.0566093017709958,-0.0552347953431029,-0.0541657347880751,-0.0523330595508846,-0.0505003843136941,-0.0479210636095001,-0.0457829424994445,-0.0431866525800912,-0.0402849167878729,-0.0373831809956546,-0.0344814452034363,-0.0314269864747854,-0.0288306965554322,-0.0262513758512381,-0.0231969171225873,-0.0207533501396666,-0.0187679519660435,-0.0167825537924205,-0.0152553244280951,-0.0138808180002022,-0.0126590345087418,-0.0117426968901466,-0.0112845280808489,-0.0109790822079839,-0.0109790822079839,-0.0114372510172815,-0.0123535886358767,-0.0131172033180395,-0.0134226491909045,-0.0143389868094998,-0.0154080473645276,-0.0164771079195554,-0.0173934455381507,-0.0180043372838808,-0.0187679519660435,-0.0187679519660435,-0.0193788437117737,-0.0195315666482063,-0.0201424583939364,-0.0199897354575039,-0.020295181330369,-0.0204479042668015,-0.0207533501396666,-0.0204479042668015,-0.0209060730760991,-0.0204479042668015,-0.0207533501396666,-0.0212115189489642,-0.0210587960125317,-0.0218224106946944,-0.0230441941861547,-0.0235023629954524,-0.0244187006140476,-0.0257932070419405,-0.0271677134698334,-0.0288306965554322,-0.0297470341740275,-0.0311215406019203,-0.0332596617119759,-0.0346341681398688,-0.0360086745677617,-0.0378413498049522,-0.0395213021057102,-0.0408958085336031,-0.042270314961496,-0.0439502672622539,-0.0451720507537143,-0.0462411113087421,-0.0474628948002024,-0.0485149861400711,-0.0492786008222338,-0.050194938440829,-0.0505003843136941,-0.0511112760594243,-0.0517221678051545,-0.0517221678051545,-0.051874890741587,-0.051874890741587,-0.0520276136780195,-0.0515694448687219,-0.051874890741587,-0.0520276136780195,-0.0514167219322894,-0.051874890741587,-0.0517221678051545,-0.0514167219322894,-0.0514167219322894,-0.0515694448687219,-0.0512639989958568,-0.0514167219322894,-0.0514167219322894,-0.0515694448687219,-0.0512639989958568,-0.0517221678051545,-0.051874890741587,-0.0523330595508846,-0.0524857824873172,-0.0520276136780195,-0.0527912283601823,-0.0526385054237497,-0.053554843042345,-0.053554843042345,-0.0537075659787775,-0.0540130118516426,-0.0543184577245077,-0.0543184577245077,-0.0547766265338053,-0.0547766265338053,-0.0550820724066704,-0.0553875182795355,-0.055540241215968,-0.0559984100252657,-0.0564565788345633,-0.0569147476438609,-0.0570674705802935,-0.0570674705802935,-0.0575256393895911,-0.0579838081988887,-0.0581365311353213,-0.0585946999446189,-0.0582892540717538,-0.0587474228810514,-0.058900145817484,-0.0590528687539165,-0.0592055916903491,-0.0590528687539165,-0.0592055916903491,-0.0590528687539165,-0.0587474228810514,-0.0582892540717538,-0.0581365311353213,-0.0581365311353213,-0.0570674705802935,-0.0569147476438609,-0.0559984100252657,-0.055540241215968,-0.0553875182795355,-0.0547766265338053,-0.0546239035973728,-0.0540130118516426,-0.0541657347880751,-0.0537075659787775,-0.0532493971694799,-0.053554843042345,-0.0537075659787775,-0.0537075659787775,-0.0537075659787775,-0.0541657347880751,-0.0546239035973728,-0.0550820724066704,-0.055540241215968,-0.0556929641524006,-0.0558456870888331,-0.0566093017709958,-0.0567620247074284,-0.0573729164531585,-0.0573729164531585,-0.0576783623260236,-0.0578310852624562,-0.0578310852624562,-0.0581365311353213,-0.0581365311353213,-0.0578310852624562,-0.0575256393895911,-0.0573729164531585,-0.057220193516726,-0.0569147476438609,-0.0561511329616982,-0.0566093017709958,-0.0563038558981307,-0.0561511329616982,-0.0559984100252657,-0.0559984100252657,-0.0563038558981307,-0.0569147476438609,-0.0573729164531585,-0.0582892540717538,-0.0599692063725118,-0.0613437128004047,-0.0637872797833253,-0.0660781238298135,-0.0688101674704401,-0.0715591803262259,-0.0744609161184442,-0.077515374847095,-0.0795007730207181,-0.0816388941307737,-0.0831661234950991,-0.0840824611136944,-0.0837770152408293,-0.0822497858765039,-0.0793480500842855,-0.0750718078641743,-0.0689628904068726,-0.0599692063725118,-0.0488204320129361,-0.0347868910763014,-0.018615229029611,0.0012217834914603,0.0242659776776151,0.0503476613772616,0.0793480500842855,0.110622313622638,0.145103758826075,0.180671233799698,0.217443523049623,0.255132149918142,0.292362607977364,0.330356680718749,0.367434415841539,0.403748536282166,0.43929904204063,0.471947812006876,0.501864538332495,0.528098944968574,0.549921355663268,0.566551186519256,0.578921744370292,0.585166415548867,0.586082753167463,0.580907142543915,0.570521982866502,0.555113935501975,0.534360585362308,0.509025547129665,0.4800421276378,0.446782465925824,0.410315622548765,0.37048887457019,0.328676728417991,0.28487918409217,0.239113210807884,0.192566653626277,0.145867373508237,0.0990323396689244,0.0532493971694799,0.0093160991223851,-0.0332596617119759,-0.0741554702455791,-0.111538651241234,-0.146936434063265,-0.17899128149894,-0.208127423927237,-0.234226076842043,-0.258033885710361,-0.278464820762003,-0.296638850197476,-0.312199620498436,-0.325164100880043,-0.336143183088027,-0.344848390464682,-0.352179091413444,-0.357507424973424,-0.361172775447805,-0.363769065367158,-0.365143571795051,-0.365601740604348,-0.364990848858618,-0.364379957112888,-0.363005450684995,-0.36147822132067,-0.359645546083479,-0.357965593782721,-0.355827472672666,-0.354469935459932,-0.352637260222741,-0.350499139112686,-0.348513740939063,-0.346375619829007,-0.344237498718951,-0.341641208799598,-0.339503087689543,-0.336754074833757,-0.333869308256698,-0.331120295400912,-0.327607667862963,-0.324247763261448,-0.320735135723499,-0.316323139782114,-0.311436005816273,-0.306243425977567,-0.300592677329563,-0.294195283214555,-0.287475474011523,-0.280144773062761,-0.272067426646995,-0.263514942206773,-0.25436853523598,-0.244594267304297,-0.234226076842043,-0.223688194228198,-0.212098220274484,-0.200508246320769,-0.188443134342599,-0.176242268643154,-0.163566264919253,-0.151518122156242,-0.139928148202527,-0.128168482097222,-0.11673123107994,-0.105735179656797,-0.0955197121309759,-0.08622058222375,-0.0772099289742299,-0.0689628904068726,-0.0618018816097023,-0.0549293494702379,-0.0485149861400711,-0.0431866525800912,-0.0381467956778173,-0.0340232763941387,-0.0306633717926227,-0.0273204364062659,-0.0244187006140476,-0.0218224106946944,-0.0193788437117737,-0.0172407226017181,-0.0152553244280951,-0.0134226491909045,-0.0117426968901466,-0.0094688220588176,-0.0077888697580596,-0.0061089174573017,-0.0045816880929762,-0.0030544587286508,-0.0010690605550277,0.0001527229364325,0.0013745064278928,0.0029017357922183,0.0041235192836786,0.005650748648004,0.0062616403937342,0.0074834238851945,0.0083997615037898,0.0093160991223851,0.0103681904622537,0.0109790822079839,0.011589973953714,0.0123535886358767,0.0134226491909045,0.0141862638730673,0.0151026014916625,0.0158662161738252,0.016935276728853,0.0176988914110157,0.0189206749024761,0.0196842895846388,0.0204479042668015,0.0213642418853968,0.0219751336311269,0.0231969171225873,0.0235023629954524,0.0248768694233453,0.0251823152962103,0.0257932070419405,0.0270149905334009,0.027625882279131,0.0283894969612937,0.0294415883011624,0.0303579259197576,0.0309688176654878,0.0320378782205156,0.0329542158391109,0.0337178305212736,0.0344814452034363,0.0355505057584641,0.0364668433770593,0.0373831809956546,0.0381467956778173,0.0395213021057102,0.0402849167878729,0.0408958085336031,0.0419648690886309,0.0430339296436587,0.044255713135119,0.0450193278172817,0.0457829424994445,0.0465465571816072,0.0471574489273373,0.0480568173307734,0.0488204320129361,0.0495840466950989,0.0505003843136941,0.0508058301865592,0.0520276136780195,0.0523330595508846,0.0526385054237497,0.0537075659787775,0.0546239035973728,0.0550820724066704,0.0556929641524006,0.0566093017709958,0.0575256393895911,0.0579838081988887,0.058900145817484,0.0592055916903491,0.0601219293089443,0.060885543991107,0.0618018816097023,0.0628709421647301,0.0634818339104603,0.0645508944654881,0.0651617862112182,0.0660781238298135,0.0674356610425472,0.0683519986611425,0.0698792280254679,0.0711010115169282,0.0723227950083886,0.0735445784998489,0.0750718078641743,0.0767517601649323,0.0782789895292577,0.0802643877028808,0.0817916170672062,0.0833188464315317,0.0849987987322896,0.086814504754321,0.0889526258643766,0.0903271322922694,0.0926179763387576,0.0946033745123807,0.0961306038767061,0.0979632791138966,0.100101400223952,0.101934075461143,0.103766750698333,0.105446702999091,0.107567854893988,0.109095084258313,0.111080482431936,0.112913157669127,0.114745832906317,0.116425785207075,0.117953014571401,0.119327520999293,0.120854750363619,0.122687425600809,0.124367377901567,0.126030360987166,0.127710313287924,0.129695711461547,0.131528386698738,0.133513784872361,0.135499183045984,0.137942750028904,0.13946997939323,0.141760823439718,0.143881975334614,0.1466309881904,0.148921832236888,0.151518122156242,0.153961689139162,0.157016147867813,0.159612437787166,0.162514173579385,0.165246217220011,0.168300675948662,0.171355134677313,0.174104147533099,0.17776949800748,0.181129402608996,0.183861446249622,0.187374073787571,0.190581255452654,0.193635714181305,4,1,21,15,1
