-0.95370707,-2.2290985,-2.7745639,-3.2167415,-3.0197849,-2.1865751,-1.5965955,-1.2365983,-0.95524637,-0.42909846,-0.094743684,-0.11425044,-0.069225658,-0.10760573,-0.073533548,-0.033116023,-0.12127349,-0.076091811,-0.071220848,-0.092755622,-0.10962937,-0.081074659,-0.10267094,-0.12884683,-0.17831491,-0.16810701,-0.14015078,-0.22139955,-0.21624344,-0.21655108,-0.26817935,-0.33587743,-0.27427304,-0.33601802,-0.37883245,-0.40086149,-0.3970132,-0.41967133,-0.43239829,-0.41045035,-0.44900045,-0.50040789,-0.4483687,-0.46541157,-0.43948354,-0.40984161,-0.29750257,-0.29003358,-0.21381481,-0.20032388,-0.12639372,-0.011842588,0.089218473,0.10063398,0.14115454,0.17358883,0.18146029,0.33182631,0.27674353,0.27752078,0.34038614,0.41269664,0.37035156,0.39567132,0.39645473,0.34711862,0.41929529,0.4719209,0.4335272,0.44226679,0.42894559,0.43864841,0.43106218,0.43162284,0.51871643,0.44693908,0.50936678,0.59128718,0.62698626,0.58714155,0.70259361,0.69755965,0.68182513,0.82162553,0.76091918,0.84091833,0.80918753,0.823514,0.79938775,0.86165041,0.81848163,0.81556778,0.74728535,0.79098388,0.78643332,0.74601922,0.71425873,0.7127024,0.75305376,0.73372887,0.64076125,0.63194782,0.61926321,0.61410793,0.60143734,0.66258213,0.62437306,0.53118068,0.5992837,0.54509747,0.48435446,0.49463961,0.487357,0.50885286,0.52782175,0.51085419,0.54863461,0.56678644,0.62502831,0.72506923,0.84269145,1.0002852,0.92307431,0.87632968,1.0075559,1.1754128,1.1392141,0.96869039,0.65913238,0.52623019,0.57422948,0.31772733,-0.097928531,-0.92383218,-1.7671724,-2.9273743,-4.0835303,-4.2716624,-2.972347,-2.0255924,0
0.16492693,-1.1722193,-2.2686718,-2.9791286,-3.1545615,-3.1901301,-2.9355795,-2.7692188,-2.2177096,-1.5950472,-1.2338795,-0.95045133,-0.7611823,-0.69591299,-0.4448275,0.079069993,0.39068177,0.40340144,0.38327838,0.44636076,0.4298395,0.33332437,0.38714907,0.47152586,0.4595177,0.45061312,0.45552941,0.44659949,0.39235832,0.36572258,0.42566783,0.44920473,0.46230624,0.41692911,0.37504148,0.31865495,0.27994836,0.3408923,0.28772468,0.28142182,0.312496,0.27594437,0.20263069,0.13985111,0.16607902,0.1496787,0.13379375,0.15640536,0.046982572,-0.009015265,0.046724434,0.080876504,0.082039421,-0.018181523,-0.029814458,-0.068093705,-0.084660806,-0.020164223,-0.063642288,-0.09912673,-0.084465328,-0.031926821,-0.069198044,-0.099048666,-0.064054759,-0.052603293,-0.079959349,-0.12330836,-0.051114636,-0.003462475,0.044434279,0.050411135,0.11372082,0.2356949,0.18862085,0.25285527,0.30941355,0.29363869,0.35996722,0.42424972,0.42726865,0.42945366,0.4533191,0.46621278,0.57859503,0.53988817,0.55395648,0.62369141,0.53785188,0.61861391,0.66535708,0.72272401,0.71319895,0.66497138,0.66708321,0.65494525,0.73595974,0.70701432,0.67284785,0.66026532,0.66506451,0.74197561,0.75696884,0.73763191,0.79239239,0.84173599,0.75892645,0.77358174,0.87918263,0.82610351,0.80950972,0.90858453,0.93774464,0.91086296,0.78087077,0.69554183,0.646988,0.52740556,0.5379915,0.63349069,0.71454602,0.66168204,0.51687598,0.46564864,0.38552008,0.32089971,0.47342489,0.60680525,0.54500288,0.34165638,0.016131638,-0.49161593,-1.1324041,-1.8771451,-2.6885901,-3.3089836,-3.6672712,-2.7690172,-2.1133249,-0.59945116,0
0.62359051,-0.47222607,-1.9155578,-2.6663097,-2.9295514,-2.9043037,-2.703087,-2.3926985,-1.8762018,-1.3358137,-0.87640413,-0.67765662,-0.52080639,-0.34439917,0.097728839,0.47287219,0.51052288,0.55887671,0.52712575,0.56551586,0.63401535,0.55375022,0.57592286,0.57290656,0.53751647,0.53784313,0.51762949,0.50057717,0.45845554,0.44320818,0.39466224,0.42138695,0.46484887,0.44441838,0.41840127,0.38989222,0.43817084,0.35144458,0.26062626,0.26643946,0.15714308,0.23836612,0.22292928,0.13199347,0.19099673,0.12345853,0.059708262,0.11163153,0.12903827,0.080999804,0.046265274,0.046911831,-0.008048505,-0.094584256,-0.091763425,-0.07763492,-0.16560967,-0.1604583,-0.05838533,-0.088909123,-0.15190592,-0.076859792,-0.017399833,-0.061355579,-0.020074118,0.047395192,-0.01699551,-0.074313863,0.013998929,0.082586142,0.17744707,0.30818009,0.2860526,0.33176058,0.35890877,0.35713667,0.47585246,0.49215686,0.56486694,0.43328882,0.46931483,0.55463611,0.52851749,0.54288615,0.54420901,0.56761529,0.62402435,0.66786312,0.7197275,0.75074674,0.54702656,0.58717527,0.56981754,0.51129975,0.58710148,0.55937206,0.65019565,0.74856078,0.6820877,0.64206416,0.64580194,0.62088447,0.64333789,0.73182366,0.67067556,0.69148991,0.63487858,0.65629103,0.64557542,0.75551589,0.85860682,0.78759029,0.77955216,0.68721718,0.79957606,0.79736975,0.68931213,0.49462334,0.50095527,0.50835904,0.49852123,0.38380801,0.1986756,0.12192215,0.010759385,0.19432639,0.46978943,0.42714247,0.15484291,-0.26607455,-0.78419065,-1.381134,-2.1152891,-2.9976665,-3.8374971,-3.9093766,-3.319777,-2.0985995,-1.6387168,-0.9932518,0
-0.11556841,-1.3747942,-2.1440369,-2.5741932,-2.7514242,-2.9313075,-2.6882942,-2.2908493,-1.726952,-1.2291506,-0.9478737,-0.82721847,-0.63515741,-0.25629243,0.20020248,0.38774897,0.33083255,0.30770569,0.33212975,0.3716936,0.35464466,0.32358421,0.27420382,0.32617645,0.29749497,0.31929331,0.39026995,0.27258523,0.28311932,0.25008624,0.20773448,0.26804592,0.29257419,0.27431367,0.24572214,0.1396254,0.11751168,0.19543098,0.15302525,0.19858831,0.25269054,0.18024641,0.077784249,0.075608508,0.077176147,0.066617299,0.056011331,-0.047022158,0.003930179,0.020257656,-0.039580451,0.007213378,-0.041295019,-0.056512103,-0.03535469,-0.14740191,-0.093419089,-0.018666468,-0.13541512,-0.16976151,-0.14986993,-0.16805384,-0.19517692,-0.22318794,-0.11168631,-0.027066012,-0.070268249,-0.017993664,0.006488828,0.003772659,0.099657656,0.12983761,0.14460848,0.236701,0.28474109,0.28336015,0.29970221,0.34220091,0.37323363,0.4382284,0.46500987,0.4639206,0.45781077,0.49469937,0.59320977,0.57264252,0.64802499,0.73111884,0.62760643,0.603361,0.6578168,0.69681524,0.75589958,0.74692772,0.72555474,0.76021606,0.81994265,0.86054604,0.84913035,0.83190735,0.80246689,0.76982717,0.82159384,0.88062671,0.86527532,0.82668105,0.80345826,0.85377018,0.89899478,0.94820756,0.96530258,0.95235833,1.0361961,1.0610461,1.043488,0.99671426,0.94159049,0.87767451,0.65816068,0.64828544,0.7233589,0.70758149,0.78086068,0.46726846,0.27298305,0.18276329,0.022753226,0.18650692,0.27847823,0.10604579,-0.13785029,-0.5786045,-1.198665,-1.8494724,-2.8300615,-3.527074,-4.0415315,-3.2632495,-2.5174573,-1.1320804,0
-0.21542331,-1.5130093,-1.9759886,-2.5194766,-2.4991743,-2.5677619,-2.6303714,-2.4261742,-2.0178151,-1.4522045,-0.94205594,-0.70460871,-0.65247339,-0.55619647,-0.3410724,0.01872109,0.36249911,0.46563561,0.42501751,0.43118881,0.43889411,0.41573946,0.41563728,0.44526394,0.49979898,0.52679646,0.46420403,0.41664693,0.43744995,0.43607137,0.44951674,0.42612446,0.42074037,0.48131891,0.42356039,0.39815122,0.41649162,0.37148787,0.41278085,0.40639847,0.32797116,0.40738609,0.3932504,0.31176952,0.39444453,0.30933139,0.2360229,0.27524057,0.22391054,0.26130271,0.2990277,0.26622805,0.2032673,0.22171299,0.27073221,0.16816375,0.14321806,0.17111945,0.13749908,0.14315717,0.095260742,0.04735031,0.094456249,0.090101176,0.059476522,0.079716371,0.063370015,0.087457313,0.13870208,0.081865368,0.016296024,0.076118282,0.16760086,0.13706694,0.14195801,0.23300912,0.21608956,0.17648963,0.23280337,0.33666555,0.43010177,0.43977189,0.41327377,0.45612299,0.49554664,0.50355367,0.47839308,0.4667768,0.58586943,0.63806112,0.60268357,0.6582982,0.69177146,0.68717794,0.70221677,0.67357587,0.65245291,0.71044586,0.7256583,0.67151197,0.70336293,0.76308612,0.70650885,0.71345455,0.86996943,0.87855363,0.75415378,0.73955874,0.79304384,0.81901025,0.81448323,0.83141255,0.83235161,0.75190055,0.64980502,0.5556605,0.50162121,0.51748105,0.59299812,0.56211316,0.41671269,0.41841679,0.32239182,0.064442651,0.094441728,0.27567948,0.2410394,0.020801231,-0.25665737,-0.66348272,-1.3202813,-2.1024041,-2.7817636,-3.5264104,-3.9611777,-3.7370672,-2.8385406,-1.4461075,-0.88812157,0.50535675,0
-0.88317816,-1.8146166,-2.1324911,-2.8415726,-2.8990442,-2.8458727,-2.7002113,-2.2543762,-1.7406916,-1.2748621,-1.0159857,-0.88592566,-0.66887352,-0.43814519,-0.17907859,0.19646458,0.38093498,0.35784932,0.34114178,0.36209051,0.38212966,0.35864884,0.39167602,0.44967047,0.41706585,0.41098205,0.43847969,0.38805254,0.3953775,0.47816987,0.4701028,0.44582759,0.43059439,0.4208728,0.42022123,0.39430212,0.42769452,0.38904018,0.36859465,0.45703043,0.39357135,0.34651522,0.3552815,0.3173388,0.33872805,0.2919207,0.24684298,0.29838488,0.29572025,0.2463521,0.22970602,0.26566332,0.30607688,0.27705592,0.25368519,0.27966491,0.2062173,0.10515156,0.11764,0.11255532,0.075670288,0.091624589,0.097745099,0.097460872,0.1067965,0.077844009,0.099536984,0.13979802,0.10309829,0.082725798,0.067114608,0.068465484,0.12439756,0.14081262,0.13299139,0.16194573,0.21923592,0.25996823,0.2734679,0.3327387,0.43177788,0.4557515,0.41819914,0.44298685,0.51425536,0.55403668,0.56199455,0.59730809,0.63910625,0.63867673,0.6921886,0.71564053,0.69630746,0.77853494,0.79940274,0.77850368,0.77433364,0.70476284,0.71679031,0.75719071,0.72918311,0.74335675,0.77778626,0.77945172,0.78761376,0.80669976,0.84196479,0.89351556,0.90575769,0.89026835,0.84652391,0.8394705,0.90000917,0.83031587,0.65220046,0.51914458,0.53515254,0.62696953,0.53522878,0.43744489,0.43494525,0.33072762,0.21406806,0.11382762,0.053968004,0.15676621,0.17684178,-0.034900129,-0.2483281,-0.60194955,-1.2215255,-1.7673052,-2.2677539,-2.9899277,-3.5263494,-3.6835562,-3.1192191,-1.9005985,-1.2357525,0.13461493,0
-0.13839885,-0.97740395,-1.4898968,-1.9197143,-2.2319244,-2.2344549,-1.9422776,-1.4280602,-1.1696109,-1.0032092,-0.921511,-0.6608494,-0.35841658,-0.29806275,-0.29739077,-0.2642742,-0.30065676,-0.29309349,-0.27346292,-0.25787585,-0.27919161,-0.26086471,-0.27064663,-0.29757353,-0.32723418,-0.32024328,-0.29362667,-0.31653791,-0.32027036,-0.31095058,-0.31400659,-0.32376915,-0.28216199,-0.29941076,-0.33325048,-0.36996304,-0.39002087,-0.38907349,-0.40963404,-0.41499654,-0.45483209,-0.43648316,-0.41848243,-0.44282974,-0.48430429,-0.50504752,-0.48631316,-0.46257477,-0.47758223,-0.47182497,-0.47120117,-0.44013004,-0.43064684,-0.37794484,-0.36483549,-0.34454326,-0.33172663,-0.3419385,-0.25887619,-0.2419591,-0.21058547,-0.12564524,-0.069308088,-0.067949922,-0.072483734,-0.026842633,-0.028974385,-0.010827525,0.054882805,0.026955547,0.017729784,0.07470784,0.080574599,0.11069377,0.084632602,0.091311045,0.099906836,0.14709024,0.17147747,0.12915734,0.17403345,0.1522934,0.18607318,0.17272174,0.20795909,0.19895064,0.27193402,0.21684666,0.19756142,0.25230551,0.2320717,0.24312209,0.26017465,0.28235769,0.24972668,0.27878991,0.32880658,0.28479508,0.32918749,0.36416389,0.37312127,0.37354631,0.37059725,0.38052687,0.38898677,0.43407588,0.47669306,0.53292849,0.63802062,0.71959984,0.90648068,1.0659179,1.1201089,1.1997884,1.422269,1.5968667,1.7171435,1.8469292,1.9562376,2.1390693,2.3808673,2.5599115,2.6608482,2.8019972,2.8472095,2.650996,2.2193134,1.9917013,1.4998074,0.51206585,-0.13931838,-0.47129903,-0.66967327,-0.88983359,-1.5060237,-1.9957741,-2.0924303,-2.2441816,-2.1210233,-1.7863978,0
-0.13644335,-0.91682494,-1.5939241,-1.8284935,-1.9753158,-2.0092511,-1.8979611,-1.5368054,-1.1244571,-0.8586586,-0.83349425,-0.77063259,-0.4766005,-0.17818701,-0.18712979,-0.22626181,-0.16132693,-0.19758503,-0.18195343,-0.16157273,-0.17743071,-0.18974008,-0.16364385,-0.14600115,-0.18358304,-0.18309693,-0.17591151,-0.23345198,-0.17725752,-0.20411108,-0.17821217,-0.24381128,-0.25083851,-0.28610232,-0.27172354,-0.2371492,-0.24151441,-0.25866904,-0.25968167,-0.28739583,-0.33484479,-0.3367339,-0.38643243,-0.41384503,-0.3655188,-0.34026752,-0.37005854,-0.39746381,-0.39297904,-0.40334562,-0.43667122,-0.39459733,-0.35096614,-0.36985899,-0.37647487,-0.38616255,-0.38817113,-0.37337863,-0.31462221,-0.28755917,-0.25413997,-0.18081761,-0.17486359,-0.18978459,-0.12966222,-0.12107257,-0.12343345,-0.084978845,-0.062873114,-0.03394575,0.054380175,0.029878888,0.051159043,0.045052666,0.027371505,0.049862248,-0.018053865,-0.00624632,0.017835194,0.046190367,0.022278176,0.036816912,0.054695017,0.092387939,0.046083316,0.099406375,0.099858838,0.10961048,0.13618582,0.11208789,0.13140196,0.1163094,0.080237,0.091529621,0.10046259,0.13556974,0.20928085,0.19652462,0.18365131,0.2131661,0.26435368,0.3060016,0.27988777,0.24853076,0.26042594,0.31044871,0.40292007,0.46838181,0.55272556,0.58192875,0.66739456,0.89159931,1.0574988,1.0491905,1.1592033,1.4094819,1.6343641,1.6807415,1.8201406,1.9732917,2.1947996,2.4608693,2.5942259,2.7694637,2.8857652,2.8604873,2.661698,2.2839961,2.0316159,1.4815937,0.50094548,-0.15433758,-0.60686235,-0.90878109,-1.0129835,-1.4573949,-2.0224671,-2.3890796,-2.6421044,-2.7372059,0
0.39760801,-0.72830254,-1.7980215,-2.3161048,-2.4281429,-2.637936,-2.6854949,-2.550609,-1.9970645,-1.411767,-1.0279443,-0.75419224,-0.66583516,-0.52998019,-0.074631736,0.34812456,0.44427403,0.44440522,0.44583867,0.38125287,0.38256657,0.3581805,0.44238701,0.47397913,0.41743752,0.44298406,0.42025414,0.46336423,0.42771973,0.43801605,0.40917839,0.37998385,0.43750282,0.40969468,0.39996501,0.41976337,0.4053415,0.34230796,0.32979271,0.32481191,0.29974068,0.27742296,0.23597758,0.24649863,0.26526665,0.24472,0.23462466,0.17277096,0.16294696,0.17070908,0.11745642,0.11507863,0.15651678,0.11792493,0.004534479,0.024448819,-0.017977278,0.035976826,0.12278934,0.042744704,0.020211726,-0.025064544,-0.046751383,-0.026051219,0.003434602,0.040841822,-0.012893147,0.003624186,0.077159117,0.092699474,0.15389906,0.15455146,0.21213627,0.30955128,0.26807302,0.20391883,0.28617767,0.36060694,0.3812943,0.46241378,0.45167811,0.42982267,0.47919988,0.49706683,0.57367955,0.58272397,0.52871552,0.55402271,0.55213593,0.57605507,0.55256653,0.59462122,0.61706422,0.60388831,0.649625,0.61384834,0.6673251,0.73351198,0.66859897,0.70729551,0.73192121,0.69166815,0.68219576,0.65687806,0.61317804,0.6191616,0.6861489,0.67220741,0.76354386,0.73012416,0.75967538,0.88074232,0.76824058,0.75782572,0.7757309,0.71688978,0.67667818,0.61567919,0.52977192,0.50079418,0.44116094,0.4295229,0.46187532,0.32214944,0.14444519,-0.013917781,0.004315465,0.25910334,0.31209382,0.14752561,-0.038976065,-0.48684892,-1.1781719,-1.8435244,-2.6581129,-3.5170736,-4.312808,-3.775397,-3.3521509,-1.7384242,0
-0.22645743,-1.4944446,-2.4070247,-2.9136535,-2.9444309,-2.8515089,-2.7784028,-2.4693413,-1.7099289,-1.2647411,-0.94241809,-0.79426813,-0.74626137,-0.33472682,0.095605617,0.21482957,0.26701979,0.31055434,0.29838607,0.30274742,0.27892657,0.21687705,0.26548863,0.2908543,0.2695245,0.30631903,0.3169951,0.25902301,0.2395439,0.23338859,0.1946959,0.23194207,0.24465049,0.21859013,0.21134425,0.17495522,0.1936799,0.21329791,0.16441434,0.15383974,0.15258057,0.13425663,0.12882853,0.14143848,0.093864382,0.062655196,0.065326579,0.007446138,0.016442895,0.021008305,-0.036938431,0.001776979,-0.005498023,-0.042740717,-0.089081099,-0.087232003,-0.089302376,-0.12392061,-0.089457874,-0.053005701,-0.015880764,-0.032411115,-0.055822183,-0.058598214,-0.036839334,0.001539901,-0.037650113,-0.008460039,0.081871901,0.091530649,0.15258057,0.23016367,0.2904433,0.31940341,0.33232923,0.35664565,0.36624928,0.36752389,0.42373664,0.46962746,0.46844557,0.49072753,0.48183825,0.54379844,0.53579168,0.57120746,0.61900611,0.55855096,0.58631608,0.61717717,0.59479156,0.55285639,0.59998113,0.65356082,0.66018643,0.6630011,0.69371423,0.65622645,0.61859167,0.66334061,0.74219523,0.883273,0.84705799,0.79962658,0.82815466,0.87325228,0.83927418,0.82063784,0.93242242,0.92647462,0.93171423,1.0292425,1.061152,1.0345059,0.98305439,0.98037121,0.94891205,0.86161585,0.7566926,0.65472028,0.74219523,0.79516234,0.64898175,0.54463247,0.41401261,0.21313534,0.12032018,0.30880777,0.50374645,0.33335737,0.089407568,-0.30074271,-1.0829661,-1.8235936,-2.6310612,-3.4067737,-3.9658759,-3.2353779,-2.4655124,-1.1016315,0
-1.0466465,-3.042079,-3.5073663,-3.5854654,-3.3915283,-2.9536865,-1.9924555,-1.3993671,-1.2195667,-0.90133437,-0.3313104,0.040526279,-0.003784367,-0.014657805,0.022517411,-0.046518653,-0.006972481,0.03767811,0.043714676,-0.002534195,0.092929445,0.077569531,0.03882791,-0.052675475,-0.032940275,0.003878719,-0.018860279,-0.03111457,-0.064320289,-0.11697444,-0.087975421,-0.13033434,-0.1573034,-0.12282512,-0.16964307,-0.17635573,-0.19065533,-0.23191314,-0.25528002,-0.25753197,-0.36779761,-0.25912046,-0.27392452,-0.25878386,-0.27087968,-0.28168935,-0.27428182,-0.21044818,-0.14509941,-0.1619392,-0.12621823,-0.09327087,0.011163739,0.046888153,0.081082226,0.1050022,0.11615303,0.15568125,0.1368946,0.25433675,0.266179,0.27817885,0.33502277,0.3131721,0.43039487,0.39826941,0.45221102,0.40115006,0.37153147,0.31039749,0.45922448,0.46060195,0.43740452,0.46879371,0.46667594,0.47838184,0.48360078,0.48825441,0.55321276,0.53676939,0.60939163,0.59011475,0.68414991,0.65939388,0.65742936,0.7389044,0.74510782,0.84366962,0.77789261,0.76250959,0.773184,0.79884077,0.88345072,0.92431311,0.88790168,0.8269035,0.88780044,0.88449439,0.8176447,0.87038693,0.81810199,0.86704989,0.80931006,0.7204252,0.70789737,0.7394164,0.74051295,0.71162448,0.70593226,0.74854155,0.65950827,0.71115261,0.66515119,0.62801347,0.63743277,0.62019993,0.60360188,0.5940969,0.50412596,0.51392301,0.56269858,0.49124665,0.3324842,0.11722278,0.083013415,0.15160942,0.29322292,0.090781276,-0.051267534,-0.079504155,0.16060421,0.63732918,0.67332045,0.42386181,-0.31131098,-1.2098549,-2.4125108,-3.8739815,-4.0035692,-2.793739,0
-1.7854556,-2.6126248,-2.6802146,-3.0694877,-2.7611329,-2.6451122,-2.3263857,-1.8321195,-1.3897986,-0.96342921,-0.78252291,-0.66051305,-0.59686455,-0.39614178,0.054893791,0.38415392,0.43745826,0.38557507,0.36673522,0.42614609,0.46602598,0.45825024,0.53123299,0.57650369,0.5093514,0.46602598,0.4659829,0.47216339,0.4455779,0.36789688,0.38415392,0.45024288,0.40782809,0.43758995,0.45501937,0.36368591,0.40756862,0.41928825,0.31065198,0.28733563,0.32274988,0.35791753,0.36658179,0.30983605,0.25351481,0.24087782,0.21148328,0.18125767,0.18785977,0.20551045,0.22040981,0.22435627,0.20176506,0.1635359,0.1653165,0.17947378,0.14810789,0.13394748,0.13840977,0.077189174,-0.004738354,-0.012865591,0.034799394,0.074230502,0.073815153,0.036197675,0.027449393,0.08707536,0.13856154,0.13577885,0.11806973,0.11489553,0.15039362,0.20430702,0.19185501,0.17947378,0.25924368,0.33838374,0.38759216,0.40720432,0.42508995,0.5067945,0.57228304,0.61274511,0.65717567,0.60930209,0.58772066,0.70398563,0.7206815,0.69453,0.71164216,0.6682452,0.74396248,0.79826268,0.71310095,0.71164216,0.73445368,0.73006639,0.73110679,0.7095423,0.7730462,0.87356462,0.83703316,0.82049929,0.82924085,0.7730462,0.77277616,0.75899104,0.77214912,0.81982574,0.7730462,0.72057023,0.68899342,0.65813664,0.61331644,0.486494,0.37231379,0.39283944,0.44974015,0.43811026,0.38415392,0.34808859,0.33796077,0.23976521,0.092448917,0.11806973,0.20846364,0.090784417,-0.13825875,-0.34820677,-0.74158688,-1.3636738,-1.9731526,-2.6244436,-3.1480153,-3.6275769,-3.5622142,-2.4840369,-1.8367318,-0.40526183,0
-0.63253766,-1.7428614,-2.3426934,-2.9162424,-3.1091853,-2.8356949,-2.1344399,-1.5659729,-1.238808,-1.0213972,-0.75666238,-0.28545422,0.082166017,0.14658741,0.15670049,0.14346103,0.18694823,0.20834967,0.1456403,0.17561372,0.10733309,0.098194125,0.14792934,0.18480017,0.18884991,0.049372227,0.063893718,0.13967163,0.14668809,0.022283793,0.016221908,-0.003401691,0.048697569,-0.022446524,-0.088711243,-0.041106297,-0.073572125,-0.029465765,-0.081802087,-0.07271738,-0.0844211,-0.072422738,-0.15589765,-0.21096005,-0.20802134,-0.23976583,-0.26752774,-0.20558818,-0.24643139,-0.3313934,-0.3135902,-0.26646517,-0.29963674,-0.27414942,-0.23995682,-0.24277099,-0.16497276,-0.10643389,-0.1337998,0.041583107,0.071581702,0.15938751,0.22418974,0.25179677,0.34346742,0.29608764,0.38742557,0.38879862,0.42793575,0.49285267,0.46203241,0.50629485,0.45448546,0.55041948,0.56901989,0.44485512,0.56181973,0.56279498,0.64252658,0.61279508,0.54903225,0.54815674,0.61970553,0.63673883,0.62331671,0.68361331,0.61394506,0.65315085,0.76422101,0.6893697,0.72617993,0.77015245,0.72095651,0.768048,0.77919038,0.78495087,0.8480292,0.87478686,0.87704742,0.98374508,0.96772956,0.96579984,0.96789008,0.9910506,1.0323,1.0186026,1.0424393,1.0561324,1.0184259,1.0341728,1.0514896,1.0338534,1.0893905,1.0717542,1.0579606,1.1090011,0.96894199,0.88422387,0.67357811,0.49235352,0.46834879,0.45085462,0.39665456,0.25887843,0.18725394,-0.042084525,-0.057671679,0.007857851,-0.083814573,-0.20374239,-0.63421705,-1.2127588,-1.7850597,-2.3571919,-3.3414677,-3.9522177,-3.492205,-2.2281475,-1.371513,-0.90135801,0
0.76655997,-0.91632809,-2.3034158,-2.8722788,-3.3928372,-3.4048125,-2.8784913,-1.9391413,-1.2662051,-1.1463951,-0.96836605,-0.1873294,0.18388252,0.078839775,0.14796871,0.11827598,0.12410616,0.07978828,0.16082468,0.20902554,0.13066022,0.16442501,0.16679712,0.18721401,0.057793817,0.06177161,0.095378988,-0.034624505,0.047752149,0.097099438,-0.045378786,0.042499928,-0.070940612,-0.10185952,-0.11961072,-0.094467791,-0.10816886,-0.10138492,-0.17870619,-0.19902924,-0.25490838,-0.21293532,-0.28129846,-0.25621513,-0.25874131,-0.26908747,-0.30291974,-0.3009458,-0.27158449,-0.2542927,-0.28926961,-0.21497486,-0.18689759,-0.13547181,-0.078138814,0.042850549,0.061404272,0.14998078,0.15167633,0.10693675,0.207107,0.29945585,0.24441475,0.34012156,0.30108291,0.29795181,0.43546742,0.49458045,0.4847853,0.51257262,0.44329536,0.47106818,0.53113307,0.54380973,0.5554769,0.51415956,0.50485473,0.47057001,0.54721378,0.51311564,0.50850992,0.62590332,0.5111657,0.77043042,0.68292716,0.71816113,0.72665818,0.62340759,0.69028066,0.64627324,0.80349494,0.80630114,0.84852565,0.9163197,0.80821839,0.79346294,0.77309037,0.76530325,0.83090372,0.79447183,0.85386511,0.79382353,0.68207104,0.68158169,0.76183824,0.65044864,0.67475462,0.62568073,0.64354864,0.58795753,0.60659522,0.56410539,0.54140252,0.51750806,0.46000469,0.55458754,0.49316855,0.56784173,0.52148289,0.49831046,0.39160174,0.36225267,0.090873911,-0.056825469,0.12429048,0.19211207,0.11827677,0.08199295,0.071923035,0.095733225,0.31996552,0.63583508,0.67513436,0.26180411,-0.49514464,-1.18375,-2.5558409,-4.3535456,-4.5693087,-3.3800626,0
-0.25410225,-1.2287286,-1.912042,-2.3377237,-2.3567459,-2.3462359,-2.3382098,-2.2887657,-2.0031396,-1.4895211,-1.0608361,-0.74232317,-0.64366624,-0.5804554,-0.39845502,-0.21969529,0.12924834,0.42234173,0.44655296,0.41794661,0.35592319,0.36530543,0.43200214,0.41072917,0.40887811,0.42534999,0.39758386,0.40452232,0.4315734,0.40470316,0.40258424,0.4526821,0.41821187,0.35996873,0.38800109,0.3891381,0.38095295,0.39520316,0.36486789,0.35807688,0.35002309,0.31770961,0.32330882,0.33810166,0.35462365,0.36003656,0.36116663,0.36138376,0.33205477,0.31949065,0.28551579,0.21022312,0.22050472,0.29402025,0.28992564,0.21102311,0.16091196,0.17226554,0.19517898,0.19403209,0.1758366,0.16152918,0.17129974,0.18492721,0.13875258,0.10860989,0.16781551,0.20342138,0.17967227,0.13110661,0.14286786,0.22437597,0.21647429,0.20116466,0.23884388,0.24958666,0.28895431,0.32500867,0.35730666,0.39788385,0.40916001,0.45866456,0.50287057,0.50903667,0.57592617,0.62093116,0.57598951,0.60564053,0.67203388,0.6505451,0.66478928,0.70311992,0.66751372,0.67107884,0.74636091,0.76052159,0.71108453,0.71090187,0.77441122,0.82540874,0.82059301,0.81057509,0.83397221,0.84706354,0.84279789,0.86543355,0.88424874,0.84091153,0.79365133,0.82285379,0.85713913,0.77798633,0.64810255,0.58447078,0.56199335,0.56675169,0.5990964,0.58167089,0.52251752,0.48235804,0.38297698,0.20136924,0.18975497,0.35670156,0.31550232,0.079202087,-0.12779358,-0.50761116,-1.177262,-1.8793092,-2.5155198,-3.1251815,-3.6484237,-3.8749632,-3.3870988,-2.542243,-1.6591642,-0.81133494,-0.64728707,-0.061131243,0
-1.0377699,-2.0146245,-2.8882251,-3.5703912,-3.6083383,-2.945215,-2.1347385,-1.7403114,-1.4588089,-1.1900927,-0.4035896,-0.15186438,-0.17226808,-0.1970201,-0.24661943,-0.18250026,-0.08515541,-0.090230565,-0.16206521,-0.15108676,-0.19160622,-0.055396327,-0.15883308,-0.17467499,-0.26929077,-0.21921362,-0.17290409,-0.22706406,-0.28180717,-0.25350013,-0.31451782,-0.34311305,-0.32533456,-0.32084113,-0.38216566,-0.41927095,-0.4013584,-0.45684542,-0.47572298,-0.52143522,-0.61351146,-0.51370512,-0.53121539,-0.66233276,-0.56953616,-0.65178385,-0.6027618,-0.50379795,-0.56504155,-0.44346485,-0.35863302,-0.29850865,-0.29055099,-0.23749367,-0.18785905,-0.055624584,0.095523225,0.14309339,0.20210582,0.1630889,0.29486744,0.42483787,0.37829639,0.43614138,0.44103246,0.46272221,0.40146857,0.45843178,0.47498328,0.49621968,0.41856734,0.55488482,0.48981037,0.51207163,0.45545128,0.51590153,0.59605227,0.55618774,0.65526676,0.58261307,0.65226503,0.62529259,0.66359469,0.66067547,0.7270204,0.72413374,0.70586356,0.80514766,0.73787125,0.83285961,0.92200944,0.9063225,0.91698542,0.92522082,0.94999786,0.93709694,0.9407315,0.97146064,0.91319446,1.0407836,1.0004823,0.99798618,1.0181135,0.94688266,0.91327792,0.87875449,0.94238398,0.86396237,0.94405,0.88277377,0.88012565,0.84709312,0.80584889,0.76337615,0.78863836,0.76374811,0.77592551,0.80865346,0.73197104,0.6624689,0.69445416,0.5594044,0.46989158,0.29291787,0.32618075,0.45572294,0.49826633,0.46442572,0.41842689,0.32961054,0.35944899,0.67338281,0.59380276,0.36542648,-0.38041456,-1.0521799,-1.7518299,-3.022551,-3.6984463,-3.0989716,0
-1.2232119,-1.962057,-1.8942819,-2.260128,-2.1092524,-2.0941731,-2.0511411,-1.7110378,-1.2511568,-0.77421981,-0.56999092,-0.57682651,-0.48584728,-0.32951389,-0.14724274,0.15581011,0.42123756,0.54155023,0.50795299,0.46619292,0.5005656,0.47845906,0.44597626,0.44802074,0.42355882,0.44613052,0.49974318,0.49447287,0.52129689,0.50601761,0.46427555,0.50247778,0.46787842,0.50340352,0.5514254,0.46427555,0.47535934,0.4573939,0.38160753,0.40397871,0.42798549,0.41687549,0.39503658,0.39801557,0.38388253,0.33726037,0.3344598,0.35051746,0.35861009,0.32648095,0.30097031,0.33559271,0.31265638,0.27115557,0.2909458,0.30097031,0.30358718,0.27326104,0.18339465,0.16736408,0.26468026,0.28540177,0.18981869,0.1503913,0.15713509,0.15581011,0.18687532,0.19646317,0.19833665,0.21170317,0.17395513,0.12546927,0.1328428,0.18235751,0.18887432,0.17395513,0.22938573,0.27615959,0.2486881,0.25574467,0.28282529,0.31734172,0.39734957,0.35643306,0.35756325,0.44613052,0.37295344,0.38851664,0.48753629,0.50766228,0.5731457,0.61124337,0.60042062,0.59296389,0.64709359,0.66387083,0.60677222,0.6643551,0.66345442,0.63441832,0.70016088,0.67242843,0.70373204,0.77688522,0.69358911,0.70016088,0.78229151,0.68907944,0.65628988,0.73414624,0.73645093,0.74167633,0.67756301,0.5552953,0.51504431,0.48242057,0.49829251,0.58105846,0.53743188,0.50653165,0.48242057,0.27866452,0.16089637,0.12019258,0.17167289,0.31911534,0.23918226,0.047062338,-0.32661831,-0.98102694,-1.7131276,-2.4279752,-3.0550542,-3.8296882,-4.1683909,-3.8905306,-3.1331837,-1.9236612,-1.6240069,-0.40057188,0
-0.27292671,-1.3064288,-1.792011,-2.2482616,-2.2390861,-2.2289471,-2.2086137,-2.0602532,-1.6759491,-1.0970683,-0.64914173,-0.46396417,-0.45988981,-0.41465929,-0.2520448,0.02987647,0.33113264,0.46898751,0.49825195,0.46139442,0.40740768,0.44293407,0.48223711,0.48581041,0.48046696,0.4629863,0.46457222,0.46821911,0.46139223,0.47678178,0.48018545,0.44576731,0.48195261,0.56330944,0.51920752,0.48815501,0.52062112,0.48953321,0.46554713,0.40835557,0.40905648,0.46607669,0.40103858,0.37819955,0.4053424,0.38317404,0.39513897,0.37769808,0.32172624,0.33343599,0.32355327,0.3023788,0.35301954,0.31301052,0.22094972,0.25642154,0.27758187,0.26203396,0.28746354,0.21329906,0.16395423,0.22390433,0.20361516,0.16800019,0.19939082,0.19886527,0.16252165,0.1941636,0.21354392,0.15614541,0.18638905,0.23040674,0.18277472,0.21609439,0.29603893,0.28495641,0.2914888,0.29682547,0.31312148,0.41457385,0.41193036,0.39888744,0.43246411,0.44582439,0.51469395,0.49630621,0.50692351,0.56582089,0.55729425,0.59139476,0.5710071,0.57619042,0.65171741,0.64623098,0.60062794,0.58166732,0.63564008,0.66645497,0.60628977,0.6377826,0.71466933,0.65413565,0.65215576,0.73091286,0.70739854,0.71085331,0.73187996,0.67856709,0.67608303,0.72227568,0.7162223,0.66034774,0.56218117,0.48898469,0.42638877,0.36825694,0.44493845,0.50271217,0.50856486,0.49745414,0.35143987,0.19087765,0.079167102,0.11580186,0.25417195,0.25387547,0.14626558,-0.20159083,-0.90183467,-1.6021943,-2.2378035,-2.9838993,-3.5929318,-4.060049,-3.9453179,-3.2735875,-2.3855748,-1.273069,-1.1515876,-0.22550339,0
0.31164168,-0.42313096,-1.405046,-1.8783384,-1.9480093,-2.0137049,-2.0135986,-1.6221891,-1.1598614,-0.96165116,-0.80914137,-0.75807429,-0.43313628,-0.17121503,-0.11413869,-0.13194474,-0.14873951,-0.15384592,-0.15922985,-0.086710836,-0.14419806,-0.13596284,-0.16270204,-0.12573,-0.1801803,-0.11215865,-0.090258281,-0.13244256,-0.17244007,-0.13845926,-0.16503971,-0.1594045,-0.17112271,-0.20013285,-0.19901842,-0.21439982,-0.20317201,-0.21639216,-0.21205272,-0.22728331,-0.26697112,-0.26366575,-0.30629114,-0.28191459,-0.34645638,-0.36274273,-0.38640789,-0.37322194,-0.38219597,-0.37350098,-0.36275911,-0.40448422,-0.37617903,-0.35913252,-0.3512281,-0.38050314,-0.30594638,-0.30304104,-0.31340744,-0.29724492,-0.24860094,-0.21931605,-0.20689526,-0.18486016,-0.15913766,-0.11109094,-0.10557911,-0.12084707,-0.11517895,-0.043708192,-0.035349945,-0.037713963,-0.031513561,-0.062552001,-0.00313672,0.017572265,0.048339912,0.032709144,0.051875573,0.073489817,0.036721417,0.097984924,0.12229483,0.091687147,0.087199345,0.051660768,0.099460677,0.1162935,0.12426662,0.16108771,0.17093542,0.16890799,0.1791599,0.20842336,0.19489897,0.23604752,0.29128782,0.2467418,0.26683506,0.27201195,0.31250736,0.33402596,0.32545245,0.33128189,0.35584744,0.35785078,0.41896525,0.42333563,0.45004946,0.49579039,0.62349186,0.7591368,0.85012171,1.0081156,1.0328858,1.1955284,1.439837,1.6848268,1.8478647,1.93699,2.0959607,2.3307932,2.4634488,2.6213806,2.7527709,2.7687651,2.6963677,2.3099875,1.8151807,1.5290709,0.72949828,-0.25735507,-0.79542376,-1.1293082,-1.2079074,-1.6238903,-2.3322566,-2.7020821,-2.8646527,-2.9067573,0
-1.2288577,-2.0727685,-2.0039077,-2.3427969,-2.2728201,-2.2585042,-2.1787731,-1.7669283,-1.2429347,-0.82569148,-0.66210265,-0.56022951,-0.4635446,-0.33068927,-0.043076993,0.26229893,0.40543969,0.47820357,0.48007296,0.47857216,0.55089389,0.45955736,0.36576158,0.47645718,0.48278604,0.42071242,0.51261935,0.55322841,0.46511473,0.46637103,0.52441256,0.51075338,0.50526632,0.48919194,0.44290459,0.48391657,0.49236529,0.42311685,0.40937413,0.40513289,0.43143622,0.43773161,0.35218323,0.35392242,0.39952476,0.33197583,0.30167289,0.36696802,0.37860727,0.37111843,0.36503967,0.30898557,0.24935626,0.21604048,0.24410955,0.25302356,0.20160791,0.19782278,0.20850947,0.19786176,0.17815167,0.13107365,0.10701095,0.10873874,0.078370605,0.093521685,0.11621713,0.055392656,0.095577198,0.17150494,0.088676416,0.055636447,0.10548077,0.064048089,0.085310957,0.14687099,0.10309142,0.17605559,0.24329318,0.17980514,0.22414466,0.29325796,0.35182039,0.39503685,0.38982706,0.42539315,0.4073355,0.39746523,0.43301926,0.46005627,0.54062304,0.56356086,0.57265657,0.61778608,0.60008267,0.61768127,0.64336022,0.63417554,0.63451197,0.63013972,0.6628719,0.66971502,0.68051752,0.72790043,0.71213546,0.73859576,0.76468724,0.70566885,0.71836096,0.76661829,0.76132626,0.77593204,0.80390921,0.7839618,0.69579776,0.55054715,0.48311423,0.50305697,0.48735688,0.50698621,0.51514015,0.44034886,0.40001839,0.30712501,0.13073353,0.1049472,0.20160791,0.21637893,0.12621736,-0.13778502,-0.68671895,-1.3418555,-1.9794832,-2.7237639,-3.3758872,-4.0733568,-4.1574235,-3.3338055,-2.8737548,-0.93190109,0
-0.85812466,-1.9812057,-2.3690184,-2.7233741,-2.6094216,-2.7041853,-2.5726409,-2.1980376,-1.6196489,-1.017934,-0.78739311,-0.72764061,-0.62855055,-0.44550208,-0.048661152,0.24935255,0.41120639,0.47087205,0.36461261,0.3638402,0.42662901,0.40978636,0.42708228,0.4550569,0.41605294,0.40727774,0.40942527,0.35503248,0.34320979,0.38918839,0.40951633,0.40365943,0.36457457,0.30648396,0.30644378,0.32216387,0.24048771,0.25251874,0.29681982,0.21637474,0.27326684,0.29444776,0.23204516,0.20655613,0.21985251,0.29763941,0.22350702,0.16736931,0.22695409,0.22447948,0.1568289,0.084866587,0.079572947,0.10471222,0.10675947,0.10239172,0.048316034,0.044364781,0.088314809,0.040829946,0.082918628,0.040310504,-0.016074798,0.069032815,0.02435814,0.039727774,0.11974369,0.12358025,0.094536003,0.090627889,0.14825198,0.15537852,0.12668034,0.1549802,0.21566626,0.20546097,0.21746032,0.29487516,0.28283507,0.31280443,0.4077844,0.42970175,0.45449931,0.49028472,0.49155576,0.51214485,0.56523978,0.57670239,0.58107769,0.59813075,0.6133507,0.65795248,0.6514617,0.64826374,0.6616748,0.64124296,0.69655091,0.76331262,0.77315716,0.76400531,0.74015391,0.72733472,0.74709392,0.7528889,0.73974426,0.7756114,0.78888881,0.76837133,0.79204906,0.82842886,0.86923515,0.85947549,0.77656739,0.82276857,0.89746631,0.80198613,0.6783324,0.54601516,0.51579796,0.54165101,0.59188807,0.62102949,0.44231713,0.35491388,0.27126274,0.098755088,0.25688539,0.40330144,0.25235728,0.1710488,-0.12317585,-0.79615674,-1.3572348,-2.0775878,-2.94948,-3.681359,-4.1463839,-3.3087847,-2.6920685,-1.0120409,0
-1.6478499,-2.5817713,-2.8266182,-3.1447854,-2.7563191,-2.658862,-2.164257,-1.6440528,-1.2569372,-0.93200692,-0.77607731,-0.68660685,-0.34792465,0.058496669,0.28386024,0.32837433,0.28217247,0.36123081,0.39111192,0.36676658,0.39740065,0.38605757,0.38749551,0.37133763,0.37406667,0.42391232,0.42509093,0.43545178,0.39209938,0.39385692,0.43559099,0.31297345,0.36318807,0.30318577,0.31246643,0.40489662,0.27599663,0.34435337,0.32788976,0.23727544,0.21784689,0.2494,0.26031811,0.2499807,0.26428642,0.20780329,0.2135418,0.13918132,0.11278063,0.19456267,0.19880708,0.11117067,0.002554351,0.050420409,0.04981659,-0.013562232,-0.068513999,-0.12919414,-0.064125694,0.000659194,-0.032653978,-0.056104615,-0.055556228,-0.010574068,-0.008834728,-0.037064782,0.024371634,0.026954919,-0.015676212,-0.016521651,-0.017643909,0.031463828,0.095705274,0.12822323,0.20052038,0.24588765,0.240344,0.2813543,0.37196124,0.41301153,0.41081946,0.4694885,0.54582759,0.53080097,0.4883353,0.55520918,0.55812329,0.56700106,0.65472933,0.63354812,0.6613442,0.68700215,0.72534759,0.75352746,0.70237512,0.71755909,0.71424256,0.69063841,0.72327257,0.73863911,0.74088436,0.79647178,0.81126547,0.7734641,0.77222367,0.80192438,0.84128432,0.81505349,0.84545216,0.92512872,0.84584385,0.79193694,0.86391908,0.87414994,0.84882784,0.90529562,0.82708048,0.60616621,0.54947562,0.63565043,0.71193765,0.6823715,0.56579288,0.38284702,0.24716065,0.11560926,-0.002312944,0.13432228,0.11746959,-0.10535014,-0.28621757,-0.73701421,-1.3131029,-1.9465284,-2.7670836,-3.3990209,-3.9321637,-3.227362,-2.6091235,-1.0409927,0
-0.73271557,-1.9448124,-2.0864426,-2.8619181,-2.7866088,-2.706218,-2.5777928,-2.1270897,-1.5550022,-1.1379643,-0.95195383,-0.7741431,-0.63962551,-0.41708605,-0.067299188,0.216219,0.33888151,0.32330137,0.30993379,0.41302544,0.40719201,0.34037732,0.42697886,0.41517298,0.39249942,0.44659782,0.40101952,0.41033007,0.43563016,0.40176483,0.35151846,0.36295595,0.41105054,0.31965732,0.30142664,0.38067548,0.3593201,0.37413983,0.38990677,0.31917177,0.31764766,0.3403222,0.27308788,0.25191562,0.29003469,0.27194504,0.24435941,0.26209306,0.2728367,0.24839947,0.26224881,0.31243354,0.30418483,0.26832124,0.27919792,0.27224984,0.18561873,0.18596884,0.2516696,0.18022742,0.15233435,0.16130772,0.1063676,0.14007522,0.13663513,0.095606019,0.15660728,0.18398332,0.13369982,0.13156144,0.17845646,0.18623067,0.18987134,0.22297369,0.22050527,0.18047072,0.1729406,0.21853658,0.29829241,0.3711382,0.40334539,0.44642937,0.48792168,0.51702289,0.51528004,0.45225486,0.52078794,0.63567752,0.61382533,0.61142387,0.63155923,0.65726268,0.70925639,0.68892822,0.62251023,0.62897767,0.70106682,0.70345091,0.65162822,0.68511286,0.75010456,0.74120576,0.74891087,0.82406018,0.83407618,0.76758555,0.75517479,0.79092657,0.81706444,0.83003306,0.80424867,0.7802951,0.81442297,0.79700477,0.69110169,0.58196305,0.4935282,0.49555399,0.52206077,0.49682973,0.48400166,0.457238,0.4240389,0.30867274,0.11119603,0.094342351,0.21703148,0.16049192,-0.1037964,-0.38267861,-0.79719576,-1.4327537,-1.933412,-2.5868416,-3.1941055,-3.8085213,-3.9081905,-2.7011858,-2.2874585,-0.1351774,0
0.28092526,-0.8465267,-1.6111587,-2.1335173,-2.5096426,-2.7233927,-2.6168079,-2.2891087,-1.8750909,-1.3750011,-0.97895391,-0.78473881,-0.62531621,-0.47468718,-0.24517065,0.18827805,0.48138746,0.50995746,0.58939575,0.59394545,0.48830192,0.50487298,0.5533012,0.56086426,0.53713766,0.50730594,0.4936508,0.45800667,0.43555398,0.46269959,0.48400331,0.47425087,0.47811299,0.49616164,0.46897205,0.39637436,0.42297743,0.45659114,0.45446549,0.4926752,0.39567135,0.38112994,0.44039386,0.39830327,0.43495422,0.39254543,0.36165654,0.40243513,0.30806625,0.27383778,0.34888357,0.35291283,0.33735202,0.31173182,0.26242126,0.24918465,0.21983243,0.24836911,0.24407624,0.11901726,0.11301572,0.15638063,0.1212956,0.14000943,0.13699286,0.068460142,0.09121718,0.095296454,0.011234808,0.048606974,0.12421548,0.13494771,0.18619475,0.14987283,0.13603287,0.16024354,0.087097529,0.1612265,0.22851309,0.23840249,0.33624544,0.34250443,0.29071428,0.28409605,0.38645348,0.52786932,0.57483021,0.53041045,0.49818978,0.62125153,0.66455274,0.61378591,0.65230593,0.6098755,0.6198978,0.70023922,0.68792579,0.71083776,0.77737711,0.81443815,0.7888197,0.74206095,0.75392591,0.80256672,0.84282634,0.8478469,0.81285713,0.7653323,0.76826613,0.80604889,0.81577363,0.85095791,0.83093709,0.68964144,0.55953143,0.46148503,0.44255407,0.496885,0.51455744,0.43610833,0.29659203,0.23089398,0.12299655,-0.062222848,-0.1298022,-0.1380562,-0.20506087,-0.35444046,-0.64305449,-1.1618942,-1.8069749,-2.3369316,-2.8368834,-3.5591284,-3.9605606,-3.6676965,-2.8157229,-1.5785006,-0.93054815,0.011125357,0
0.17599095,-0.79057671,-1.6226513,-2.3211852,-2.406238,-2.4112708,-2.3257459,-2.2695879,-2.103039,-1.6157298,-1.1518795,-0.83880543,-0.69483399,-0.5217543,-0.33875462,-0.1828179,0.15529192,0.36737235,0.43645633,0.52063134,0.42848968,0.37418567,0.45599209,0.48143847,0.46077179,0.44498063,0.44396048,0.442183,0.44913595,0.49885932,0.51514244,0.44538397,0.42903365,0.44249611,0.44124279,0.4582004,0.38058951,0.35939427,0.40659069,0.36911969,0.39036951,0.40584282,0.3836752,0.40646374,0.37533084,0.34059334,0.37178341,0.38567726,0.36468904,0.33540838,0.31051086,0.31348069,0.27171703,0.21371156,0.23237165,0.19889662,0.13550072,0.17314887,0.19560629,0.14730618,0.15769941,0.22307295,0.20463799,0.17525879,0.2011535,0.16041691,0.14857497,0.20142433,0.19757649,0.18567952,0.1444397,0.084300454,0.08403771,0.12885274,0.18822212,0.1872949,0.18390082,0.23673725,0.26887974,0.2844871,0.30102273,0.34740029,0.40472935,0.37972259,0.35613197,0.4423354,0.56023624,0.57629891,0.57527823,0.65239089,0.62150381,0.60765039,0.7227385,0.71035399,0.69111937,0.7493886,0.74425874,0.74506199,0.75112076,0.75390825,0.80769685,0.82021245,0.78526173,0.82118988,0.84929484,0.81055837,0.80506045,0.83745843,0.84160522,0.79933383,0.78874215,0.78420693,0.68461359,0.57407027,0.51909417,0.52644996,0.55635103,0.54662645,0.51134025,0.42050539,0.39002373,0.37645017,0.2141045,0.21396047,0.35006966,0.24339569,0.01411414,-0.23974612,-0.73274493,-1.4180199,-2.0667136,-2.6807636,-3.3839791,-3.9922715,-3.7648811,-3.0850622,-2.2740754,-1.221965,-1.0349698,-0.076043764,0
0.022796535,-1.1712393,-2.2159758,-2.9437166,-3.1438982,-3.0086471,-2.6718754,-2.3296713,-1.7683588,-1.3530914,-1.1165709,-0.96145654,-0.74358232,-0.3519689,-0.017933195,0.15915306,0.15924428,0.10010151,0.15496959,0.1854961,0.24685369,0.15421604,0.13897551,0.25496218,0.21469155,0.2357326,0.22081133,0.18370562,0.14498572,0.16152046,0.17630747,0.11872695,0.18397807,0.1318792,0.12222332,0.14198686,0.14271072,0.19337789,0.12082468,0.079569815,0.064163926,0.087102481,0.12462086,0.092300741,0.018242949,0.11122716,0.092758093,0.039185776,0.058353947,0.060795741,-0.01649031,0.026690816,0.071698186,-0.03220277,-0.040141814,-0.079155929,-0.038298059,-0.037141682,-0.035368456,-0.059188464,-0.021566061,-0.062392955,-0.10065505,-0.010554297,-0.047405936,-0.030619492,0.033956188,0.054851318,0.11018536,0.12777651,0.16535059,0.17996338,0.31245175,0.32442981,0.31639485,0.42177932,0.42103837,0.47597198,0.50949658,0.45781385,0.48815566,0.54871322,0.62541172,0.67772365,0.69483707,0.67591005,0.68934755,0.7168612,0.71255105,0.71472051,0.66541835,0.71366948,0.67494835,0.65716763,0.74843034,0.67901851,0.70546061,0.71292692,0.7355668,0.81670457,0.7956573,0.82331017,0.75133959,0.78813656,0.86532963,0.81520296,0.87205966,0.86290391,0.8798407,0.94438835,0.91875498,0.986504,0.97994517,0.95428599,1.041128,0.95127301,0.89589073,0.97071156,0.87283987,0.69892137,0.72995758,0.70884146,0.68324248,0.61465004,0.40986428,0.29337887,0.043161399,0.10938146,0.24693608,0.20865074,0.037855143,-0.3631821,-0.97566605,-1.5522721,-2.3941328,-3.1113208,-3.8192098,-3.401927,-2.7682226,-1.5211874,0
-0.30277706,-1.2926609,-1.8486679,-2.2407709,-2.4679651,-2.3163388,-1.9297415,-1.4946864,-1.1514354,-1.0884075,-0.90318184,-0.50058913,-0.30522162,-0.29791325,-0.34992905,-0.30029059,-0.35370582,-0.30271305,-0.31764217,-0.34933772,-0.32097498,-0.26969614,-0.32257632,-0.37583579,-0.36982512,-0.41975108,-0.35365226,-0.38628222,-0.36966727,-0.37802108,-0.35960258,-0.38357049,-0.39834664,-0.41234057,-0.46013763,-0.43065977,-0.45077537,-0.51253414,-0.44757012,-0.52501178,-0.56303565,-0.57423105,-0.58673134,-0.56377439,-0.58063843,-0.58822758,-0.56758926,-0.58347659,-0.61461458,-0.55643694,-0.54383608,-0.56665052,-0.51338347,-0.47667427,-0.49935063,-0.46912018,-0.39460522,-0.33820927,-0.30807726,-0.27357517,-0.24797476,-0.22899686,-0.16270205,-0.12155379,-0.1516632,-0.12029608,-0.084028903,-0.11163887,-0.067304121,-0.079907185,-0.08696061,-0.041325529,-0.023678101,-0.000459019,-0.048110939,-0.051397291,-0.029075047,0.023359459,-0.013084457,0.005576118,0.081320068,0.057833527,0.074509367,0.057325459,0.070017488,0.12744274,0.12524548,0.15542982,0.18893073,0.2035271,0.18561833,0.24239002,0.22578088,0.27418886,0.32650617,0.28615553,0.30009325,0.26650425,0.26220886,0.33243316,0.29594813,0.24523436,0.24439887,0.29994187,0.29841184,0.32145655,0.31851322,0.28751183,0.30585587,0.36483621,0.42934185,0.45499507,0.5784352,0.68547005,0.86166137,1.0278758,1.0487921,1.2261499,1.5212228,1.7642091,1.8100631,1.95632,2.0772614,2.3696278,2.6017802,2.7680122,2.975223,3.0861373,2.9593635,2.5389006,2.2386655,1.7372741,0.77121021,0.17219917,-0.14074303,-0.18846195,-0.59369133,-1.479852,-1.8675637,-2.3511831,0
1.4318017,0.67924333,-0.24321872,-1.216759,-1.9192224,-2.1385985,-2.3264233,-2.3492117,-2.1719238,-1.8735262,-1.4287311,-1.0491883,-0.83158105,-0.66642187,-0.51892145,-0.31253267,0.019087833,0.34538132,0.50144436,0.48452435,0.4632969,0.48723682,0.46649819,0.44963492,0.49870608,0.45825416,0.4201922,0.50252472,0.46282742,0.47688075,0.52434622,0.45844356,0.46492718,0.4649977,0.48601729,0.45726081,0.42666476,0.44661141,0.42588043,0.43043994,0.36974833,0.3396092,0.34606306,0.32462772,0.3275209,0.309914,0.28174195,0.2419914,0.28267982,0.30494613,0.29086632,0.308099,0.25516509,0.27434779,0.26793151,0.17926329,0.20356375,0.20619243,0.12004557,0.092387948,0.068391365,0.012878605,0.090542311,0.17030458,0.096307857,0.091895897,0.14837641,0.08787683,0.092483498,0.15437147,0.11043542,0.10529453,0.11249221,0.043354134,0.011265887,0.072913916,0.13276348,0.16451236,0.20661764,0.21691598,0.30886452,0.37327276,0.37121643,0.42446159,0.43746859,0.50433293,0.51401281,0.48781008,0.53056863,0.50443666,0.53200534,0.57739924,0.52942378,0.5469094,0.59229603,0.62813422,0.6488501,0.56980571,0.6182301,0.68118958,0.69970563,0.79319976,0.80157436,0.79942241,0.77568023,0.70747306,0.75380193,0.77464075,0.74232485,0.81153221,0.82818362,0.8206545,0.80801677,0.73764541,0.60619946,0.45247401,0.46728065,0.48856084,0.40312964,0.4274159,0.38846877,0.30786193,0.2995495,0.097370244,0.10171547,0.15683613,-0.029335952,-0.1331087,-0.50940025,-1.3046159,-2.1388631,-2.8561399,-3.5929953,-4.2385687,-4.0793689,-3.202058,-2.3436749,-1.2964921,-0.8541638,-0.056184831,0
-3.1061701,-3.5370445,-2.9053212,-3.0615118,-2.3773082,-1.9736486,-1.4141181,-1.200546,-1.0398724,-0.89797351,-0.62088217,-0.17467102,0.17361169,0.33544751,0.26043241,0.1769413,0.22003144,0.27204586,0.29423612,0.30797081,0.30217952,0.28160601,0.26184056,0.27478641,0.30505917,0.33992652,0.3086662,0.31276605,0.34512681,0.26986649,0.25192922,0.19208224,0.21387784,0.29066416,0.20132211,0.1545644,0.15498836,0.160537,0.13088807,0.11505218,0.14459654,0.15485781,0.1122172,0.083537662,0.1532738,0.10962652,0.064869101,0.060653575,0.002888647,0.0486964,0.058482984,0.011931533,0.005652984,-0.052903837,-0.14233995,-0.13259855,-0.099518805,-0.10095767,-0.099685309,-0.16532232,-0.11304809,-0.05582484,-0.099951789,-0.035998003,-0.045111618,-0.062662137,0.024918097,0.003622084,0.001204663,0.051178949,0.006349199,0.052057692,0.1434428,0.18892063,0.29536003,0.27898814,0.25042613,0.38747401,0.41581009,0.4000995,0.43511797,0.47302843,0.49578005,0.47020694,0.51451562,0.59459805,0.60086275,0.60534749,0.58639679,0.58953726,0.62127861,0.57803642,0.60594607,0.6809848,0.67806577,0.70273641,0.69760617,0.7173823,0.76859882,0.69251925,0.71999188,0.77381916,0.77298198,0.79343221,0.76472158,0.78977242,0.85042044,0.83210433,0.78465991,0.81819001,0.86199332,0.85236192,0.87446683,0.89847268,0.88756913,0.9377944,0.95816463,0.8867715,0.73904563,0.57803642,0.60286802,0.68776747,0.651115,0.59735953,0.49174697,0.31525127,0.1122172,-0.002218934,0.18512151,0.28747405,0.08292412,-0.0919506,-0.43934725,-1.1793724,-1.7540671,-2.3884298,-3.5636608,-3.5589706,-4.0428974,-2.3808393,0
-0.11831121,-1.7916125,-2.3456744,-2.4613111,-2.5052657,-2.1778072,-1.3484322,-0.93678577,-0.81133871,-0.57516391,-0.082690056,0.18541605,0.11197222,0.098191805,0.12836213,0.15023743,0.12487556,0.18455898,0.10398666,0.1504827,0.21954441,0.16893801,0.069850779,0.098878965,0.10131804,0.11081109,0.048768949,0.087124546,-0.027818131,-0.03329918,-0.045528828,-0.074758492,-0.043045558,-0.079391952,-0.07461157,-0.071569948,-0.093024069,-0.12830575,-0.080793649,-0.10157909,-0.1753474,-0.22054823,-0.19732663,-0.15394959,-0.15880239,-0.20490979,-0.20521569,-0.11807614,-0.11287944,-0.069646536,-0.042751189,0.024649326,0.089352633,0.09467174,0.13302851,0.15707652,0.18971878,0.23904532,0.32854712,0.25911464,0.31732112,0.32947317,0.36035246,0.36738722,0.35294031,0.41475801,0.43104459,0.43338782,0.39867981,0.43859783,0.42990449,0.4776334,0.45055282,0.46292244,0.51945302,0.52834736,0.54114945,0.56856769,0.53434154,0.61357867,0.6548672,0.6326905,0.65243839,0.6517657,0.68122529,0.71403848,0.75821691,0.76661838,0.73832952,0.75056376,0.72282481,0.74745956,0.75030121,0.69579473,0.68587631,0.78376995,0.72595027,0.70142597,0.72481231,0.64135206,0.69560104,0.60162425,0.59376349,0.60973825,0.62657926,0.57773737,0.58902544,0.48874428,0.43465593,0.19043451,0.059824524,0.081210341,0.11843356,0.22413505,0.33821954,0.80127916,1.0894734,1.2565842,1.5067807,2.369548,2.8397101,2.0204743,0.001546329,-1.1010736,-1.3166539,-1.8480242,-2.6520832,-2.9429581,-2.5881766,-2.5249935,-2.787771,-2.9494643,-2.7301895,-2.2365916,-1.4812875,-0.74766445,-0.35081539,-0.060954338,0.39673307,0.66517973,0
-0.55472207,-1.7744281,-2.519477,-3.0520832,-3.1362306,-2.9251083,-2.5578438,-1.9316195,-1.4338418,-1.2832935,-1.0351126,-0.82056815,-0.47787128,0.051449375,0.19385086,0.14591242,0.18817574,0.16375073,0.1967862,0.24863441,0.15881514,0.2093832,0.24915065,0.19500823,0.22871156,0.21972201,0.24437686,0.21016835,0.23207991,0.2273837,0.15886559,0.18373362,0.18145647,0.20111105,0.20016695,0.16136405,0.046944049,0.080049635,0.12217452,0.094380264,0.039285056,0.10650733,0.034940442,0.050340737,-0.033585099,0.009315494,0.064083711,0.018316597,-0.01190538,0.003663254,-0.077076289,-0.076680453,-0.022727155,-0.066778053,-0.086112152,-0.15070271,-0.1297093,-0.10326193,-0.11307394,-0.095198709,-0.030433211,0.014398242,0.001708883,0.018460146,0.068703137,0.041009844,0.050396834,0.086886751,0.12678842,0.22268088,0.27748613,0.25801094,0.31135172,0.40576131,0.42274699,0.36610097,0.47876332,0.47407714,0.54089236,0.58566309,0.53166716,0.53182261,0.53659683,0.56938228,0.56069521,0.60374168,0.62558628,0.60332259,0.65094155,0.62658891,0.64867867,0.65896835,0.69219393,0.71224223,0.69521142,0.74778004,0.71665616,0.69327281,0.67251096,0.75087958,0.7167881,0.77536306,0.8150031,0.76230089,0.84124867,0.87745018,0.85938766,0.87112999,0.97491289,0.90097462,0.96211095,0.97862908,0.99042403,0.96611431,0.96344848,0.99232937,1.0004247,0.9407483,0.83085973,0.74014214,0.62490814,0.68084622,0.73177762,0.66242103,0.48463293,0.2524304,0.16927225,-0.036926679,0.067545119,0.2410903,0.037279327,-0.25389888,-0.86613499,-1.4353968,-2.0530871,-2.8276407,-3.7869752,-3.6737593,-3.121494,-1.8579202,0
-1.1463327,-2.0874314,-2.3993749,-2.635449,-2.5342153,-2.314035,-1.8300356,-1.2606268,-0.98520554,-0.70761583,-0.62564821,-0.34888277,0.099213678,0.49654017,0.5667898,0.46426582,0.47583104,0.4637728,0.43135745,0.45878029,0.43512777,0.37098286,0.43684359,0.46872352,0.6065113,0.55334939,0.4721677,0.49780742,0.42031517,0.35431877,0.24239795,0.33048015,0.33766527,0.39985449,0.44977362,0.44961088,0.41484375,0.34106093,0.30632503,0.23359391,0.2249323,0.20313515,0.14052728,0.12152627,0.10863872,0.15998837,0.14715988,0.073664861,0.10426903,0.057695618,0.049186177,-0.012721796,-0.08987475,-0.053263642,-0.087009494,-0.026648331,0.03857139,0.03468482,-0.047836063,-0.017067064,-0.00094425,-0.093192667,-0.045528627,-0.037203696,0.12552172,0.17211602,0.24069065,0.30123845,0.30366351,0.33824821,0.33826598,0.4116788,0.39394622,0.4619413,0.42821426,0.36532685,0.44747786,0.43924595,0.54184322,0.56308222,0.59165389,0.55484912,0.50090819,0.50777483,0.51552007,0.52440353,0.54201782,0.56336489,0.51865806,0.5093171,0.53216197,0.51473172,0.54405441,0.55318034,0.55843742,0.62874312,0.5813014,0.59157546,0.58508553,0.51945112,0.55180165,0.67273879,0.7418414,0.65205771,0.67193342,0.61662824,0.68843562,0.69361426,0.67315074,0.63979227,0.67262141,0.79218513,0.81798578,0.81756562,0.73840448,0.72673771,0.61782642,0.54617147,0.43993832,0.38932843,0.42557271,0.39681271,0.33031166,0.18736166,-0.023223632,-0.11362452,-0.064093813,0.037749406,0.092748741,-0.022322919,-0.32393319,-0.8356694,-1.4413986,-2.1658009,-3.1597297,-4.0813874,-4.3772173,-3.7095904,-2.7372709,-2.0418854,0
0.66110449,-0.24734083,-0.99205243,-1.5541258,-1.9459108,-2.4537556,-2.6301654,-2.5017794,-2.1873857,-1.7311327,-1.3131123,-0.95889481,-0.7383141,-0.57038497,-0.433853,-0.14285615,0.31657432,0.50038767,0.47933832,0.44294826,0.44495132,0.4787146,0.40751974,0.43942149,0.52492177,0.48445732,0.43612603,0.44308868,0.49391745,0.43161016,0.40603766,0.45600493,0.41520648,0.4657237,0.44043875,0.36786425,0.3951065,0.35747195,0.3844655,0.36770565,0.3072152,0.38470827,0.38536511,0.29223765,0.26692319,0.27229972,0.247435,0.24879142,0.28805573,0.2808719,0.22978945,0.21287547,0.24966363,0.26437233,0.19329902,0.13015636,0.16400841,0.18929524,0.11160264,0.042807155,0.065631862,0.05906278,0.047855353,0.10305382,0.079656097,0.030985078,0.091165196,0.056458092,-0.019379071,0.067885906,0.058516365,0.004205662,0.10322998,0.13186287,0.11466375,0.17227658,0.18667833,0.17151815,0.22664041,0.28612939,0.30123131,0.34157122,0.43702751,0.43627268,0.38169255,0.49181448,0.5538348,0.60607323,0.65982983,0.58079379,0.64308607,0.6341864,0.6564524,0.78715108,0.71234163,0.72890213,0.72133301,0.7307489,0.82845061,0.76682619,0.85306896,0.94607509,0.87569608,0.84616072,0.88185347,0.94749143,0.9265084,0.95863511,0.97919752,0.86848448,0.85836556,0.8743128,0.85827965,0.77016983,0.61831502,0.58135084,0.57268746,0.6153613,0.62613354,0.46574441,0.34541757,0.29279023,0.16600185,-0.038582151,-0.066963627,0.013081003,-0.16261245,-0.41613546,-0.78582827,-1.3529564,-1.9307785,-2.5050389,-2.9869537,-3.7226434,-4.0566839,-3.5136558,-2.5878635,-1.3383248,-0.84240689,0.12671317,0
0.44004933,-0.061466751,-0.5862651,-1.2461421,-1.2808147,-1.633461,-1.8146814,-1.8559583,-1.9453455,-1.7377655,-1.2572531,-0.91392956,-0.70479727,-0.53051542,-0.49330377,-0.36329647,-0.004750846,0.17264526,0.20945331,0.26989332,0.23277257,0.3092986,0.35122233,0.24619652,0.27220583,0.28523757,0.24882108,0.29233715,0.25713495,0.27527954,0.24262791,0.22985987,0.38152563,0.31136471,0.30806709,0.37006216,0.32900102,0.27309827,0.21307517,0.26436832,0.2704926,0.29898139,0.28376392,0.19823906,0.2182465,0.24998891,0.24668763,0.18015228,0.16524477,0.20346754,0.16799575,0.15575373,0.17802234,0.14334584,0.097138133,0.1173172,0.13656025,0.076683054,0.03881468,0.12273814,0.19565841,0.13474913,0.074419377,0.1053674,0.11940251,0.12681293,0.16705864,0.13240997,0.16895558,0.208561,0.13708317,0.18229483,0.21351761,0.24412267,0.31837179,0.32496235,0.30715946,0.3359493,0.42905636,0.43087512,0.44100071,0.48768715,0.47926625,0.53118049,0.57628935,0.54866623,0.539284,0.61197799,0.69882621,0.68549421,0.66294633,0.71358065,0.72098819,0.70587225,0.73217144,0.72258824,0.72197976,0.73497658,0.69164405,0.71445699,0.78078254,0.80502131,0.85515725,0.86481017,0.8464598,0.87563843,0.83140958,0.83386261,0.89468051,0.84390235,0.86040178,0.89718115,0.93846173,0.91087024,0.86043652,0.93234022,0.84242655,0.71849326,0.59859628,0.5366228,0.60168805,0.59231627,0.55637133,0.37166086,0.10759834,0.007523179,-0.30222847,-0.58478762,-0.53408296,-0.78326868,-1.0364032,-1.4289016,-1.9595264,-2.5381125,-3.0152645,-3.2994419,-4.170645,-3.9282078,-4.067682,-2.0993096,0
0.23594561,0.18861599,-0.343742,-0.70557853,-0.98611728,-1.2717816,-1.4218364,-1.2827861,-0.93444847,-0.65909073,-0.47931073,-0.35718194,-0.11166054,0.12773682,0.11710735,0.096697302,0.091831536,0.12867987,0.095600126,0.15100174,0.11753982,0.14092611,0.16840925,0.16480378,0.10938456,0.083487779,0.039946798,0.081622817,0.10204633,0.02663046,0.078602114,0.060857457,0.004622999,0.018672679,0.05246701,-0.007850732,-0.070485796,-0.053884461,-0.047474051,-0.076342655,-0.10589861,-0.16852273,-0.18705939,-0.13232181,-0.142744,-0.19599768,-0.19797769,-0.18190736,-0.18402729,-0.15304606,-0.21140608,-0.18903993,-0.18351847,-0.12170117,-0.10179648,-0.10417387,-0.02104435,0.054208975,0.040452773,0.040856592,0.15003299,0.19367714,0.21686478,0.19714178,0.23520944,0.25759224,0.25422869,0.27583955,0.24715592,0.27338931,0.32086232,0.32810993,0.34314524,0.38582659,0.31539,0.3120052,0.33860046,0.3594962,0.40920229,0.36431131,0.3506944,0.40024807,0.41344319,0.39780238,0.41278789,0.46989922,0.49807698,0.47693988,0.5246568,0.50343802,0.56167702,0.55521703,0.57292693,0.58621247,0.63158637,0.63677743,0.65804258,0.67304775,0.67420622,0.62361374,0.62924151,0.64240371,0.68313135,0.65610462,0.63587333,0.64715392,0.61918244,0.57666977,0.59279585,0.55132421,0.57111706,0.57337525,0.58212164,0.52958033,0.51485635,0.53831509,0.56818682,0.53132829,0.53568881,0.49060727,0.56095274,0.67734672,0.76474215,1.0422974,1.113013,0.87869646,0.55987523,0.53661081,0.78093208,0.44931865,-0.16070236,-0.45508447,-0.6281355,-1.4740217,-2.1274693,-2.6790641,-3.3702498,-4.6112685,-5.4915076,-5.6617151,0
1.056069,0.84206261,0.59720165,-0.083224801,-0.50001615,-0.6826704,-0.87019844,-1.0875383,-1.3233439,-1.4388405,-1.3749181,-1.1644187,-0.80910763,-0.51716251,-0.4007933,-0.26411375,-0.15222604,-0.065783831,0.20751245,0.51245392,0.60224276,0.59796662,0.56226574,0.47151336,0.49417896,0.5839651,0.55468014,0.53891356,0.59970248,0.59375236,0.56951418,0.55265164,0.4828509,0.4873012,0.59237405,0.62079627,0.56210893,0.54846195,0.53998726,0.46924121,0.43712741,0.47005554,0.47683458,0.48591037,0.51329564,0.46417129,0.42578608,0.45846115,0.43125843,0.37598681,0.34383827,0.31884223,0.34723925,0.36732249,0.33952751,0.34085543,0.31886156,0.26757148,0.29572871,0.27627241,0.15932456,0.10884769,0.12890951,0.17799073,0.19706332,0.17768314,0.16704377,0.12502254,0.11026,0.132235,0.14333599,0.15023294,0.11923696,0.11363215,0.10183936,0.056405924,0.1021112,0.14346901,0.11958212,0.14898332,0.19429736,0.19486106,0.21695781,0.28957585,0.35396668,0.37377473,0.36828777,0.38682577,0.43349086,0.45899305,0.46786624,0.51077623,0.56402829,0.56259401,0.53211713,0.55328392,0.61896235,0.63386496,0.6348076,0.66922539,0.65181598,0.63689748,0.65422748,0.63637353,0.66206418,0.73114722,0.73349077,0.70374058,0.69210971,0.66345533,0.66224038,0.72722253,0.77522806,0.73412657,0.61690728,0.50237206,0.43172168,0.36171096,0.30735899,0.29903792,0.19983581,0.04367794,-0.10118362,-0.28840094,-0.39113034,-0.60292645,-0.87471235,-0.88498606,-1.0215128,-1.2771982,-1.507022,-1.919358,-2.4698969,-3.1092278,-3.3426737,-3.8017008,-4.2350589,-3.8660957,-3.9279257,-1.7678771,0
1.1456958,0.70285239,0.18008104,-0.51318552,-0.88046184,-1.0035141,-1.3350108,-1.6717601,-1.6982987,-1.6131832,-1.2601611,-0.92518797,-0.74826022,-0.51451594,-0.40594657,-0.27666223,-0.010680943,0.33897741,0.48671895,0.43523507,0.40823478,0.39029095,0.42703117,0.43452542,0.43560874,0.42487541,0.44949622,0.46694705,0.39029095,0.37130412,0.36234251,0.43451431,0.51361184,0.40571981,0.35517041,0.4107073,0.34704046,0.2945897,0.34969962,0.32447579,0.28403487,0.28973716,0.30862556,0.35168914,0.29537766,0.24670249,0.24935035,0.25598277,0.29278851,0.26779287,0.22881562,0.25366771,0.26347352,0.13785661,0.12337195,0.13360062,0.022796708,0.073296667,0.070863411,0.018353485,0.021356329,-0.033110832,0.021707755,0.084045748,0.027672847,0.04014469,0.036369757,0.073937514,0.064759337,0.030528004,0.10446209,0.034209989,0.052465427,0.14227918,0.24426001,0.28302109,0.25164404,0.32904191,0.33138326,0.36734318,0.40756989,0.37900906,0.40496432,0.43754237,0.51278903,0.60999032,0.59251263,0.55668521,0.55349404,0.56221416,0.60074896,0.61487076,0.64800711,0.68116648,0.65201117,0.64057886,0.6985307,0.71456169,0.69653615,0.70074483,0.66462182,0.65753078,0.64894931,0.67755362,0.74220934,0.69653615,0.65643884,0.66786,0.70986486,0.75003924,0.69034694,0.65966847,0.69653615,0.7111193,0.75790916,0.73148346,0.7323211,0.70959747,0.52324727,0.43112364,0.38466345,0.33809288,0.37802892,0.21996147,0.02422984,-0.031535575,-0.26303215,-0.62865582,-0.9189518,-0.964654,-1.0566095,-1.4192333,-1.7676804,-2.3046668,-2.9021579,-3.3286384,-4.1391528,-4.1355569,-4.7877853,-2.9810576,0
0.85190349,0.89998118,0.82189485,-0.020126884,-0.442606,-0.69170084,-0.93718943,-1.2677656,-1.5067516,-1.6841439,-1.5794591,-1.1627457,-0.81670914,-0.5630309,-0.3475395,-0.21252013,-0.13627014,0.10162307,0.44491026,0.56753788,0.54988425,0.5486889,0.55490455,0.58671383,0.57814464,0.52628648,0.61372802,0.69362185,0.57544638,0.5754637,0.59947024,0.54684208,0.58748761,0.51353354,0.43082177,0.44756676,0.56113935,0.56679058,0.42210412,0.42272363,0.40842889,0.45407233,0.51828559,0.41092963,0.39019487,0.42790455,0.36062222,0.3392012,0.34521601,0.35501039,0.38665399,0.34476143,0.26468784,0.15152884,0.12248646,0.19489665,0.22095557,0.15596599,0.083396399,0.072463152,0.025009379,0.041405502,0.053303861,0.043890422,0.08210605,-0.018705984,-0.041117149,-0.00808555,0.009934714,-0.015241135,-0.063246519,0.032657285,-0.013071474,-0.025804422,0.031929467,-0.006222173,0.066709878,0.12107282,0.14772841,0.26212712,0.22231407,0.23315178,0.35303886,0.36246004,0.42235876,0.40055568,0.46006691,0.45619177,0.39455909,0.54899577,0.53980782,0.52724687,0.56959352,0.57412916,0.59003792,0.58914009,0.59141937,0.57117148,0.66682438,0.67127539,0.66359175,0.68221023,0.60794498,0.69395499,0.69261134,0.68575852,0.74064236,0.67381809,0.64880432,0.64867593,0.67441381,0.72525247,0.77168063,0.76328491,0.75373228,0.79157461,0.73860497,0.64185695,0.50094907,0.30404305,0.27079241,0.28389838,0.15157352,0.032997584,-0.1507959,-0.44945888,-0.681638,-0.95299837,-1.1865536,-1.253546,-1.4142161,-1.7190769,-1.9749671,-2.4750253,-2.8974665,-3.294135,-4.0852382,-3.9756834,-4.6788552,-2.6520483,0
0.50562275,0.32856717,-0.23952487,-0.78582409,-0.96844815,-1.2415522,-1.3939275,-1.4274432,-1.1411648,-0.91230699,-0.75624264,-0.61725895,-0.44147939,-0.18876886,-0.12483022,-0.11865273,-0.076595034,-0.095477024,-0.12946982,-0.10318642,-0.085843487,-0.057315095,-0.093654372,-0.11696204,-0.11981873,-0.094124307,-0.11836481,-0.12381751,-0.1013993,-0.16251112,-0.13536851,-0.15833266,-0.12667576,-0.095558746,-0.16746609,-0.16758964,-0.18657025,-0.18142879,-0.18100055,-0.23750517,-0.21248498,-0.22044025,-0.1641876,-0.24362849,-0.25789075,-0.29609603,-0.30082297,-0.30843109,-0.32218842,-0.34854481,-0.34809766,-0.33344232,-0.36857393,-0.32838839,-0.38147855,-0.39395357,-0.37720236,-0.3469488,-0.32029103,-0.32209785,-0.29143251,-0.24953798,-0.23103514,-0.20773017,-0.17326861,-0.14857507,-0.12395943,-0.10792897,-0.08501213,-0.045479539,-0.030862358,0.007159,0.015226422,0.031947276,0.038130458,0.053573782,0.061096948,0.057721095,0.056515585,0.07811165,0.088631504,0.10933425,0.089334621,0.12279002,0.11104792,0.1225168,0.10782366,0.11563255,0.12030877,0.11509475,0.17433937,0.1327963,0.087916926,0.15220491,0.13337822,0.18167886,0.20882541,0.16113118,0.21641508,0.16992078,0.21223163,0.23925997,0.23148311,0.27326365,0.29651595,0.34883437,0.37158341,0.46756402,0.50400518,0.58971385,0.72902121,0.856701,0.95464481,1.0036217,1.0921511,1.205634,1.396883,1.5338046,1.6253459,1.8001685,1.9991313,2.2265732,2.3750111,2.5592069,2.6577351,2.6780294,2.4902615,1.9698456,1.6038281,0.94633626,0.080470381,-0.44604754,-0.80091935,-0.9523784,-1.3760137,-2.2665791,-3.0262159,-3.6879616,-3.8078406,-3.5462261,0
0.7564014,0.84771742,0.70854933,0.065223467,-0.26373422,-0.54247574,-0.83304445,-1.004031,-1.1573435,-1.2561149,-1.2264166,-0.99270631,-0.63705605,-0.46898019,-0.36133386,-0.26194537,-0.31390171,-0.15246044,0.18202372,0.33912884,0.40827067,0.45981848,0.42743215,0.40346109,0.46073254,0.49491565,0.46096832,0.41717211,0.42075109,0.47104611,0.46750192,0.40960145,0.40656438,0.41266576,0.36973016,0.37134763,0.41282473,0.41391211,0.39930517,0.39252455,0.39654513,0.37316848,0.34370866,0.38369424,0.3779247,0.30561586,0.34121549,0.36628861,0.28721583,0.30858099,0.32401747,0.31823938,0.34567634,0.29766168,0.33505006,0.31019494,0.22106789,0.26280767,0.24185453,0.22926782,0.25046962,0.19982212,0.23453292,0.29986367,0.22453726,0.14990669,0.15222124,0.1658363,0.18139389,0.15816363,0.14603992,0.14243296,0.11233896,0.14149632,0.19236254,0.20137241,0.22813135,0.22375697,0.19578672,0.25824112,0.30251709,0.28833471,0.27835717,0.29500081,0.34110351,0.34254792,0.35847173,0.35761239,0.39843263,0.53114277,0.51657479,0.50269148,0.5539775,0.5610673,0.61776497,0.62139627,0.61224341,0.65651517,0.65662998,0.67003452,0.69697454,0.66319599,0.64441858,0.70281963,0.74006025,0.7363579,0.76230541,0.76963499,0.73352139,0.73899094,0.78371335,0.78857027,0.75314073,0.68995935,0.62359615,0.53692323,0.43525249,0.45554795,0.4676278,0.39047985,0.34457201,0.20312361,0.016664496,-0.11199236,-0.34269297,-0.56113567,-0.62521149,-0.76354351,-1.005924,-1.3275301,-1.8547736,-2.5093852,-3.1394784,-3.7210635,-4.0085345,-4.346889,-4.2873485,-3.1406852,-2.5219748,-1.0082524,0
0.32349126,0.47820062,0.35686581,-0.38048542,-0.60937914,-1.0220598,-1.3946003,-1.8006358,-1.9174834,-1.9732875,-1.7353618,-1.3082238,-0.94936648,-0.63792585,-0.47611834,-0.33445383,-0.047447717,0.29053268,0.46697025,0.46718812,0.4526089,0.42383029,0.44705332,0.47462933,0.43141095,0.47911237,0.41606821,0.40835955,0.41891074,0.32356448,0.33012891,0.3680346,0.42949764,0.40694539,0.37770321,0.40466444,0.36954377,0.34500337,0.31682331,0.25871104,0.25928622,0.25411087,0.29234301,0.28870515,0.25479187,0.25451323,0.18604219,0.14940479,0.18312852,0.22388662,0.17597946,0.15291924,0.17699209,0.13919582,0.080333721,0.022325202,0.016330288,0.015955577,-0.032952585,-0.041565922,-0.055542386,-0.093437938,-0.11282695,-0.15152754,-0.1692128,-0.19740432,-0.16825379,-0.11493489,-0.10546357,-0.061640931,-0.090275988,-0.11890387,-0.063567473,-0.082234785,0.05762433,0.11731277,0.074694126,0.23149162,0.23852092,0.2428441,0.34346778,0.40206443,0.41858028,0.45374551,0.51022783,0.54436107,0.56317237,0.57612765,0.63771529,0.6385516,0.59659023,0.65694624,0.66556353,0.65268184,0.71438723,0.68249102,0.68228641,0.69878491,0.70606535,0.7493933,0.76312116,0.8033242,0.80752182,0.76928289,0.75145855,0.78989226,0.84807925,0.87228274,0.8680874,0.88913313,0.89874424,0.84665868,0.88080897,0.87713716,0.89209096,0.96692566,0.9550368,0.99673705,0.96262749,0.81857321,0.71514634,0.53425216,0.48727693,0.44888017,0.27257746,0.168438,-0.20142343,-0.5658733,-0.7853351,-0.98542141,-1.1440962,-1.380617,-1.6222671,-2.077034,-2.6557457,-2.8985052,-3.7024883,-3.5951722,-4.8490538,-3.4222751,0
0.95221659,1.0665815,0.9232215,0.31730129,-0.16876791,-0.52650063,-0.71614334,-0.95160202,-1.2638487,-1.3798844,-1.4061174,-1.3698944,-1.0986966,-0.74678629,-0.4720581,-0.2988328,-0.28631604,-0.18068969,0.098107439,0.38882994,0.57156622,0.55571581,0.56425516,0.56892743,0.50840879,0.56718137,0.56550548,0.50544767,0.54158764,0.57933999,0.57247392,0.53286783,0.53955567,0.5610691,0.51174492,0.48587312,0.50686005,0.50736556,0.50933274,0.47960743,0.43007753,0.48805171,0.52529522,0.46771318,0.4699252,0.46359722,0.40014633,0.39245661,0.44049298,0.41983706,0.32673976,0.33442448,0.37112182,0.36658463,0.34902137,0.2666153,0.29260681,0.29681249,0.18983675,0.22765282,0.23342877,0.20850509,0.24556734,0.19372634,0.15406128,0.16130873,0.18195748,0.16249427,0.087178011,0.099355474,0.13962995,0.12711808,0.076521113,0.057770316,0.13267394,0.15738573,0.16100683,0.16978658,0.13439353,0.18499013,0.19770675,0.14696972,0.19027142,0.24868679,0.30468253,0.34574923,0.35356384,0.41717133,0.50972893,0.54046715,0.51030371,0.4915287,0.52243875,0.59099562,0.6505689,0.638163,0.61661818,0.66234915,0.68227513,0.64187078,0.64099782,0.67021723,0.66951475,0.67589584,0.70511842,0.72516298,0.70170089,0.68161606,0.72487615,0.73875262,0.71947531,0.72143674,0.69602351,0.67431486,0.64993457,0.52847768,0.40484167,0.3617426,0.32385324,0.31185324,0.2110442,-0.008492244,-0.11825611,-0.24754056,-0.53582313,-0.79631141,-0.91931921,-1.0058155,-1.2149513,-1.4497024,-1.7462975,-2.2415862,-2.7694406,-3.2709857,-3.4747778,-3.904919,-4.2174222,-3.546347,-3.145027,-1.3886194,0
0.66788854,0.75904631,0.16474537,-0.63807945,-1.100535,-1.3627593,-1.6734498,-1.8028827,-1.5004558,-1.0487724,-0.78929021,-0.66560627,-0.51727912,-0.11318512,0.20626911,0.18829782,0.16435801,0.17364151,0.18536195,0.2152786,0.25318459,0.28865401,0.22453304,0.2219603,0.18508203,0.2081163,0.15383365,0.20691718,0.13188181,0.1342463,0.16663006,0.1450002,0.099248244,0.16493193,0.10860317,0.10406504,0.085063187,0.08022813,0.011213757,0.030102789,-0.0014738,-0.01881934,-0.025339783,-0.087076721,-0.11130144,-0.18846998,-0.12288078,-0.12871903,-0.12578823,-0.12716961,-0.13728018,-0.1520427,-0.13922143,-0.15801718,-0.16701352,-0.10580582,-0.060074778,-0.002229758,0.026824182,0.029380724,0.03344889,0.072489805,0.12815144,0.20086875,0.20921694,0.27331459,0.31221994,0.3379966,0.37784812,0.40819978,0.46989399,0.43007913,0.4159035,0.45077075,0.46682124,0.52615173,0.49848738,0.46493017,0.48631435,0.55082539,0.55096948,0.53886494,0.49368576,0.60791465,0.58043369,0.55568958,0.57184597,0.60081149,0.62439946,0.65191019,0.64113616,0.59175644,0.67961595,0.66787371,0.7411424,0.71236827,0.67778468,0.77759532,0.79120684,0.78537511,0.73670696,0.75608109,0.78525897,0.82023237,0.81656037,0.82268089,0.8560127,0.85051798,0.77907163,0.81833616,0.85051291,0.78187729,0.80068354,0.79649756,0.70086477,0.71605097,0.72817387,0.77988866,0.67914118,0.65913426,0.67119695,0.52200318,0.35228153,0.21580711,0.2189691,0.19696247,-0.083281593,-0.39270938,-0.54730681,-0.95030347,-1.2096559,-1.2475447,-1.5229299,-1.9713797,-2.5355154,-3.1048468,-3.6590216,-4.6036691,-4.7293389,-3.8238825,0
0.54171508,0.14074071,-0.27353189,-0.48435253,-0.69357346,-0.69271605,-0.41413892,-0.23987283,-0.17301827,0.020794627,0.23029126,0.21692974,0.21245186,0.23021873,0.2106676,0.18671486,0.22711181,0.19475117,0.19111037,0.14074134,0.17305471,0.15868078,0.15017709,0.1288042,0.11247778,0.097596804,0.077758342,0.1075824,0.084088002,0.077842109,0.046145515,0.03646247,0.026041952,0.036543238,0.010273449,-0.023995723,-0.033938113,-0.022188224,-0.016550129,-0.037313128,-0.043042387,0.015705699,0.021295077,0.039403602,0.053450021,0.08852296,0.11577279,0.13909933,0.15901923,0.17698663,0.19869909,0.21672374,0.19692258,0.21473203,0.21495525,0.25683035,0.27126348,0.25762882,0.27130516,0.27820659,0.26723867,0.27745303,0.28458851,0.27101917,0.2890305,0.28036722,0.30189011,0.32383892,0.29945325,0.31165203,0.31063627,0.33796177,0.34638481,0.37994894,0.39583369,0.3776509,0.36754453,0.37905082,0.43702185,0.39910589,0.42938965,0.40330627,0.42006147,0.40269021,0.43701132,0.44168161,0.40398424,0.39489873,0.36330976,0.35587454,0.34797374,0.33357015,0.34233789,0.3063614,0.32266776,0.31315031,0.33229279,0.31167856,0.3264521,0.32873794,0.30516587,0.30173662,0.34082343,0.34762286,0.33948809,0.34182187,0.31061226,0.31445647,0.33336119,0.32809857,0.33075807,0.33591573,0.35225672,0.36210713,0.41068594,0.50662451,0.58043734,0.6079896,0.64012718,0.69181148,0.75026634,0.82388534,0.80333161,0.74711227,0.6378568,0.5281345,0.54599443,0.45433051,0.44377442,-0.047260993,-0.64368352,-1.0880288,-1.7645328,-2.662963,-3.3184861,-3.8668985,-4.2217581,-4.629212,-4.6017453,-5.0331781,0
1.0141772,0.68017021,0.17231961,-0.38630491,-0.62807574,-0.81589139,-0.95829435,-1.0831511,-1.2323852,-1.2479477,-1.0805963,-0.80234694,-0.55951383,-0.40338074,-0.29306083,-0.1881559,-0.046674415,0.17630263,0.45354295,0.56209476,0.47600521,0.4701373,0.51700534,0.48481553,0.48065281,0.51270384,0.49610058,0.47616024,0.50824918,0.52957151,0.5043595,0.48543729,0.4769971,0.48241669,0.480463,0.47307732,0.49180917,0.42281002,0.38532227,0.45979717,0.42299903,0.38738939,0.42460131,0.41138229,0.45202227,0.48979408,0.40962007,0.41692568,0.46118282,0.37782201,0.34390172,0.34411823,0.3539124,0.34386625,0.26460142,0.32365376,0.35767771,0.28622788,0.34409505,0.35680857,0.25762799,0.26741327,0.29224397,0.23170582,0.2426469,0.29033288,0.26338097,0.24531163,0.21851958,0.1740198,0.20803942,0.19767979,0.18366071,0.25807938,0.22387243,0.1973398,0.26806937,0.27811569,0.27654214,0.29132166,0.30387751,0.31596664,0.3293394,0.346796,0.33432863,0.34039814,0.39303775,0.42869728,0.45360475,0.48216715,0.47277701,0.48870176,0.54413768,0.54021116,0.52250419,0.53790771,0.54801529,0.56197695,0.55685116,0.54101409,0.58542193,0.61241289,0.59478091,0.63339505,0.64145335,0.60644262,0.61399667,0.61558595,0.60624038,0.5845428,0.58759066,0.63011729,0.65773398,0.67903424,0.62469587,0.50167453,0.36757425,0.26623991,0.30461925,0.32082362,0.22841325,0.12377067,-0.051818906,-0.2294329,-0.38506241,-0.56228376,-0.70619354,-0.83808744,-0.98668429,-1.2247327,-1.6369972,-2.1547154,-2.726837,-3.3501386,-3.6481345,-4.1125722,-4.4085966,-3.7975307,-3.4743648,-1.5199316,0
0.30206131,-0.013412254,-0.56213034,-0.98562275,-1.1934595,-1.4913122,-1.6581675,-1.4736328,-1.0964604,-0.912506,-0.78319583,-0.6905842,-0.38447878,-0.14690751,-0.15189998,-0.14099054,-0.12346419,-0.1331383,-0.17406969,-0.17710412,-0.15845587,-0.1929245,-0.1297956,-0.15222678,-0.17749039,-0.15126612,-0.1577302,-0.20662245,-0.24865407,-0.23234676,-0.18229115,-0.24454195,-0.26237083,-0.30291757,-0.29944559,-0.27640625,-0.25224307,-0.30470811,-0.35855933,-0.32230766,-0.36501651,-0.36851025,-0.36449872,-0.33159854,-0.3817189,-0.39147752,-0.4122889,-0.41077767,-0.42178508,-0.35450064,-0.40027069,-0.38256549,-0.40678644,-0.37965288,-0.37910649,-0.33072896,-0.33185493,-0.31781977,-0.2796704,-0.25231451,-0.17310633,-0.16935699,-0.15936572,-0.11109052,-0.15655225,-0.06630444,-0.11357007,-0.06809728,-0.041956572,-0.031484947,-0.010749268,0.022674422,-0.039279537,-0.001055899,0.062631202,0.036663062,0.054790318,0.061320223,0.048259594,0.044312183,0.056251475,0.072022781,0.10070421,0.060392195,0.067184332,0.083697227,0.09694354,0.084930962,0.12607613,0.12738504,0.12370705,0.18575503,0.11037982,0.16536906,0.18828927,0.16784797,0.18007441,0.18671279,0.2343782,0.24379023,0.20489594,0.28547467,0.27902175,0.21848168,0.26538807,0.33084692,0.32370357,0.3404846,0.4223897,0.51717666,0.59185941,0.70891205,0.83627698,1.005131,0.9971628,1.0494617,1.2710119,1.4472373,1.6063356,1.729699,1.890217,2.1309125,2.3870737,2.5203805,2.7383207,2.8421693,2.7692476,2.3713555,1.9668996,1.6630304,0.93130102,0.21350354,-0.30777971,-0.61315873,-0.78390465,-1.7142853,-2.7658349,-3.3111067,-3.6569891,-3.6861535,0
0.35558722,0.23786451,-0.31688877,-0.81002837,-1.02242,-1.2408048,-1.4297257,-1.5017771,-1.2881786,-0.91597037,-0.72754777,-0.61421007,-0.53265469,-0.29880383,-0.061556419,-0.041938322,-0.038011061,-0.034386197,-0.062290609,-0.10698567,-0.043659019,0.022474826,-0.035079682,-0.055256821,-0.057881792,-0.029174902,-0.034675514,-0.096999107,-0.069337231,-0.13890277,-0.120103,-0.13981782,-0.13680402,-0.18071356,-0.19198418,-0.15893911,-0.15512134,-0.18910332,-0.21655495,-0.24362546,-0.24295991,-0.22836326,-0.26017396,-0.24723436,-0.24294349,-0.29524678,-0.26711029,-0.33485391,-0.33213413,-0.3351458,-0.34993687,-0.35954581,-0.35968871,-0.35394771,-0.32094254,-0.34659047,-0.3212301,-0.27629637,-0.26659444,-0.26142635,-0.24120633,-0.1610988,-0.16562348,-0.16829181,-0.12694396,-0.11731723,-0.095222985,-0.059961958,-0.055851273,-0.041423296,0.027374873,-0.019946698,0.012068057,0.034779704,0.002854274,0.037653571,0.048709443,0.022735248,0.051092034,0.086781727,0.052452553,0.052587016,0.096247553,0.060363958,0.058254988,0.081929055,0.11768705,0.11535231,0.098119261,0.13027209,0.13574147,0.12494701,0.15694609,0.15850064,0.15024192,0.16133233,0.18253195,0.20874207,0.15687894,0.21843118,0.24315537,0.25276343,0.21733628,0.29805329,0.27241308,0.30011787,0.38232775,0.39338558,0.46398976,0.55585723,0.64618781,0.78855035,0.943153,0.96369973,1.0327124,1.1979149,1.4296207,1.5112346,1.6399082,1.7712367,1.9884577,2.2071083,2.4097985,2.5308453,2.6782785,2.7337151,2.477105,1.9471876,1.6283914,0.9537241,0.19202999,-0.35522838,-0.72558184,-0.91103821,-1.4974137,-2.5314261,-3.1189112,-3.6689893,-3.7331928,-3.3728478,0
0.57767389,0.88168052,0.61559731,-0.21107051,-0.62753402,-1.0341089,-1.2152412,-1.5857554,-1.7947532,-1.8270697,-1.6019376,-1.2183968,-0.87169718,-0.51203311,-0.38745,-0.20446065,0.25879877,0.4827558,0.4815839,0.40294801,0.42605266,0.42309764,0.39222652,0.44443715,0.48745826,0.46896751,0.41612064,0.469792,0.50431218,0.47687527,0.48699202,0.45375774,0.45141945,0.50164256,0.39791449,0.35558724,0.48943291,0.4249153,0.27970257,0.31847853,0.37600096,0.37275543,0.35112565,0.33590695,0.33644812,0.25495764,0.19246734,0.31856994,0.34029062,0.22945519,0.18930772,0.1713285,0.15305086,0.15286994,0.16248033,0.08357671,0.04465282,0.10243811,0.036471403,0.062939874,0.10423959,-0.009366506,0.029170983,-0.020107353,-0.082673841,-0.039791352,-0.055496063,0.008169661,0.024933979,0.021011512,0.0931212,0.056352693,0.072952558,0.041475725,0.079137087,0.15823919,0.16597775,0.25557654,0.27395954,0.29282947,0.3997406,0.45119562,0.39547411,0.43948328,0.49003617,0.51054441,0.53853115,0.54016091,0.59686328,0.56640046,0.56610839,0.59396253,0.61662059,0.64740048,0.63198718,0.59161163,0.60043316,0.69441324,0.67478516,0.63419263,0.66075289,0.70234927,0.72045737,0.69114027,0.6819523,0.75938115,0.80843777,0.71153157,0.73454943,0.7641344,0.7238168,0.72788221,0.80221501,0.8125488,0.73858599,0.83322195,0.77764194,0.71167012,0.70118717,0.5312785,0.38631696,0.38513356,0.39312803,0.28492405,0.10549897,-0.20059725,-0.5054307,-0.78607448,-1.0004752,-1.0539743,-1.2699552,-1.6343464,-1.9533243,-2.4795275,-3.1105769,-3.3096527,-4.1231797,-4.1027447,-4.28453,-2.5308112,0
0.69800804,0.023732825,-0.7570707,-1.2059559,-1.5431223,-1.6615415,-1.2079345,-0.89012195,-0.66781188,-0.43681747,-0.028183885,0.015334581,-0.028084412,-0.038151869,-0.045107516,-0.026818769,-0.061317266,-0.068498638,0.002094692,-0.038430519,-0.080204974,-0.10527404,-0.092443025,-0.13398373,-0.14558808,-0.14962525,-0.16151862,-0.15833785,-0.19470002,-0.17330797,-0.15048261,-0.18467354,-0.26628002,-0.27588096,-0.34920028,-0.33014333,-0.33401565,-0.39093319,-0.39527955,-0.38015934,-0.37118618,-0.35682079,-0.36628229,-0.37903516,-0.33182428,-0.27858262,-0.23894153,-0.14417045,-0.089009757,-0.071859404,-0.046169981,-0.03176796,0.038054823,0.051184227,0.050995998,0.10624486,0.11202324,0.086193338,0.15477687,0.15147536,0.17963432,0.19875614,0.22862268,0.19037427,0.21105049,0.22110126,0.16902554,0.22169044,0.25347496,0.23887948,0.24367677,0.30043564,0.30787711,0.31982465,0.34550072,0.39872459,0.39927779,0.35017302,0.42053472,0.4959176,0.47838896,0.45039129,0.46370159,0.46218835,0.47331861,0.40958433,0.42321944,0.40012268,0.39137378,0.40710578,0.36957383,0.34152683,0.3292074,0.35219262,0.35136464,0.33822427,0.34681083,0.33569066,0.33707977,0.33155462,0.35866127,0.30592797,0.27232893,0.28724028,0.33051074,0.3070145,0.28387238,0.30833093,0.33167971,0.30809742,0.28675381,0.25210861,0.31381199,0.30454528,0.3066673,0.42396182,0.51922349,0.68881368,0.77083005,0.80458309,0.88374338,0.93222251,1.1643465,1.2103528,1.1962654,1.2230085,1.1560671,1.2005851,1.4613588,1.346759,0.79420302,0.42180251,0.81151194,0.66913011,-0.59031874,-1.3076805,-2.964085,-4.9947771,-5.7721361,-5.7219622,0
0.40531081,0.14835867,-0.42178575,-0.85284681,-1.0750217,-1.3619009,-1.4881875,-1.4778926,-1.2111792,-0.90633796,-0.7254745,-0.65212749,-0.46834046,-0.17111138,-0.088346132,-0.078016728,-0.11905693,-0.09105199,-0.091310601,-0.055688604,-0.10227818,-0.10577502,-0.10762856,-0.10728583,-0.15767046,-0.11176735,-0.1333041,-0.10876592,-0.11972743,-0.15424555,-0.14112172,-0.15026729,-0.19457925,-0.1314441,-0.15877256,-0.20095709,-0.21722622,-0.24414743,-0.23091316,-0.22987186,-0.23198375,-0.28500569,-0.30033598,-0.28059967,-0.31049965,-0.28409682,-0.35561452,-0.3364959,-0.37465502,-0.35236051,-0.37496225,-0.37749459,-0.37608374,-0.32103135,-0.33654321,-0.35253612,-0.33710439,-0.27752734,-0.25757029,-0.27302655,-0.25865127,-0.24612316,-0.19484945,-0.16073437,-0.13572889,-0.098900366,-0.060350949,-0.03791185,-0.04466361,-0.021547157,0.034698862,-0.010052065,0.014136191,0.044770084,0.0464943,0.063100474,0.088372307,0.064859994,0.10875503,0.11644548,0.087618523,0.10877139,0.10734141,0.096068527,0.15481646,0.15293004,0.14322138,0.12892069,0.16958438,0.17223004,0.19265464,0.15410531,0.16306411,0.14286806,0.20690341,0.26136554,0.24768734,0.25096236,0.28287028,0.27466043,0.32861602,0.35137475,0.30401486,0.34363579,0.36153945,0.3874832,0.4448961,0.49065095,0.56776951,0.69650875,0.84308572,0.94810731,1.0362297,1.0555246,1.1707692,1.41943,1.5158573,1.6145821,1.8005564,1.9193063,2.1961416,2.3854287,2.5250076,2.6840815,2.7370795,2.5406177,2.0214794,1.7280336,1.1543051,0.34762209,-0.16898378,-0.56224291,-0.74837897,-1.2821816,-2.3461139,-2.9285711,-3.4068492,-3.5332159,-3.0325815,-2.4360958,0
0.99775926,1.0780875,0.90924167,0.36275858,-0.054989925,-0.45473654,-0.62881713,-0.8079821,-1.1264916,-1.2719045,-1.2728089,-1.1847807,-0.94295386,-0.63969929,-0.40203858,-0.23769694,-0.14172054,-0.027596781,0.17216479,0.37769324,0.513594,0.56590153,0.53733376,0.50851115,0.54399722,0.56368006,0.52381085,0.52034129,0.57059498,0.53051638,0.53028935,0.62866926,0.57815083,0.55386788,0.55050147,0.46350793,0.50042972,0.51977284,0.52536608,0.51599498,0.41342187,0.45310987,0.5286103,0.48642312,0.46332803,0.44681258,0.41365281,0.44292816,0.46985037,0.43933149,0.43011723,0.39922372,0.33499459,0.33830659,0.29495911,0.26316369,0.33162029,0.26104505,0.21956908,0.3182484,0.29655439,0.25866514,0.27998084,0.22939796,0.17204426,0.16299156,0.16093882,0.18553441,0.19641706,0.17975193,0.21307762,0.18904135,0.10270485,0.16074008,0.18504783,0.096210145,0.14329336,0.17534944,0.12951921,0.18716706,0.26316369,0.29045699,0.32719308,0.36119527,0.36311423,0.36333581,0.36424484,0.38159556,0.45383836,0.47730534,0.44681258,0.48388575,0.51840582,0.50949032,0.51944202,0.5469847,0.57634426,0.59076287,0.60693538,0.6162932,0.64715683,0.69826261,0.65563707,0.58763755,0.58607069,0.63046148,0.67980923,0.66102678,0.65430115,0.68554623,0.64715683,0.60089978,0.59576138,0.55720395,0.49920354,0.39672652,0.27544447,0.29049133,0.30835532,0.19828734,0.079514791,-0.035993479,-0.163958,-0.32298924,-0.57088015,-0.80533897,-0.90443203,-1.0085037,-1.26662,-1.5339835,-1.8738416,-2.4362838,-2.9492097,-3.4128833,-3.6532909,-4.0442377,-4.2415149,-3.4303325,-2.9808815,-1.2620429,0
1.0494045,0.95442379,0.59610962,-0.034168194,-0.42526619,-0.65719023,-0.76830793,-0.99840774,-1.2719111,-1.3408175,-1.2129764,-0.88337089,-0.60637612,-0.45289879,-0.28948841,-0.22405308,-0.16780752,0.10280669,0.40938096,0.5279712,0.55548851,0.54707938,0.50489329,0.54610503,0.57342058,0.52511335,0.56535623,0.59658056,0.57102791,0.55774582,0.4998115,0.51556284,0.57794494,0.52475083,0.50410428,0.55842926,0.52145045,0.48779789,0.50782062,0.47697387,0.44789255,0.42425283,0.43075464,0.43705942,0.43312841,0.48107663,0.42509428,0.39739558,0.43809107,0.37867948,0.38500502,0.35761763,0.29870502,0.3377542,0.32626014,0.32782488,0.33472941,0.32221998,0.33727121,0.25268108,0.17742069,0.23840156,0.24196242,0.1694136,0.19839334,0.22724491,0.14900592,0.14160137,0.19975424,0.17914628,0.17126809,0.18517596,0.14508548,0.10413796,0.090280683,0.13581443,0.20064447,0.20035215,0.21001365,0.25217974,0.23645246,0.22368503,0.28736121,0.33584738,0.32881442,0.31958593,0.34829472,0.40329298,0.45669625,0.51737662,0.54632565,0.51726737,0.50543129,0.53440461,0.53891801,0.51888969,0.54842434,0.58991579,0.59878632,0.63571477,0.62773791,0.55198732,0.56342408,0.63079564,0.6488636,0.66750914,0.65683103,0.59932908,0.58901957,0.59383338,0.62375041,0.67630103,0.62992008,0.58129034,0.60062947,0.50706633,0.35742688,0.32252886,0.31335293,0.29791756,0.20887315,0.013047446,-0.11765618,-0.2360567,-0.41513483,-0.64766432,-0.89344877,-1.036666,-1.1962923,-1.3946307,-1.6827131,-2.1294398,-2.6437692,-3.3081942,-3.5586131,-3.8987105,-4.3015934,-3.8007749,-3.5569489,-1.6499174,0
0.70305938,0.3974819,-0.18976403,-0.60579095,-0.78851277,-1.0336137,-1.0960507,-0.87678696,-0.56465902,-0.41443007,-0.32057244,-0.13648921,0.17445795,0.21599439,0.19670347,0.21811099,0.26298145,0.22846771,0.2444146,0.23655928,0.19220762,0.17743545,0.19128306,0.20111466,0.19653159,0.16158414,0.14712531,0.12979283,0.10981355,0.13043367,0.11521682,0.13612536,0.10052692,0.097470373,0.076070472,0.056350454,0.099186725,0.051572059,-0.002238799,0.04367713,-0.014374671,0.005023461,-0.064697144,-0.054574064,-0.030060395,-0.051512745,-0.058386606,-0.071118893,-0.081808086,-0.02774806,0.010459064,-0.017092549,0.0165948,0.037357408,0.043094649,0.078952658,0.12871367,0.1709539,0.15157015,0.22284332,0.23289082,0.23969069,0.24463197,0.25164662,0.28668094,0.25419474,0.32591622,0.31534944,0.27210397,0.3321337,0.31875478,0.3072942,0.30734855,0.34668219,0.31350888,0.3558503,0.3259033,0.38008273,0.3615022,0.35755736,0.37780357,0.36835787,0.37623028,0.35629272,0.39108671,0.3537403,0.41167173,0.42063388,0.40929668,0.41804009,0.44516344,0.41711394,0.41790675,0.44026648,0.43175266,0.45609079,0.4685592,0.47225036,0.43520307,0.45425579,0.45758828,0.44122532,0.44111145,0.42241486,0.42539901,0.43414755,0.38586956,0.3993559,0.41576611,0.3559507,0.37855369,0.38673956,0.42830241,0.37979869,0.36543031,0.37482655,0.39034534,0.38459477,0.39939066,0.36368423,0.37107761,0.41698619,0.4409467,0.51225229,0.63116886,0.84352442,0.8908485,0.70693497,0.41392859,0.16105416,-0.000141177,-0.30878027,-0.68624705,-1.0921394,-2.0072431,-3.0485519,-3.9882948,-5.1514742,-5.6506875,-5.5941284,0
1.242991,1.148919,0.90073812,0.2061781,-0.21239658,-0.51090605,-0.79818922,-1.0499679,-1.3213688,-1.4720539,-1.3858961,-1.1391115,-0.80411186,-0.52958758,-0.40992698,-0.32440326,-0.2560545,-0.11353804,0.25771622,0.54600876,0.52437504,0.46866105,0.53198887,0.55071008,0.48265273,0.48321494,0.52153355,0.52250473,0.46915539,0.42527247,0.49984611,0.52476837,0.50866411,0.52367134,0.47359702,0.47451212,0.5106745,0.4987356,0.48558443,0.46901339,0.4967168,0.529107,0.44812256,0.42796445,0.49415465,0.43697812,0.36407673,0.36862669,0.3889164,0.39639905,0.37472858,0.34385592,0.33630729,0.35604174,0.35328908,0.3133355,0.28490883,0.28702006,0.26059839,0.19331679,0.18270769,0.21281425,0.16342904,0.11504679,0.14429856,0.11360591,0.085958648,0.12006495,0.10558876,0.093088953,0.049665351,-0.001907067,0.014685115,0.0441157,0.079593415,0.074781131,0.069537654,0.12183171,0.17861391,0.19498076,0.17715821,0.19172802,0.21914039,0.18403826,0.19278555,0.27550544,0.29606849,0.33735477,0.38943407,0.3986774,0.43094526,0.43289459,0.45175596,0.48679668,0.54580595,0.59871339,0.58097717,0.5982397,0.58179314,0.61139205,0.72140906,0.65977964,0.54841843,0.58218622,0.6401932,0.63188582,0.65844509,0.67854311,0.61029338,0.62689514,0.69920001,0.70806811,0.69025127,0.68479512,0.72734939,0.69236265,0.58378376,0.51630583,0.40804702,0.2995857,0.29437555,0.30009904,0.18946639,-0.039311563,-0.28534286,-0.44866236,-0.61691107,-0.89889095,-1.1234499,-1.2041858,-1.4111488,-1.8444803,-2.1014014,-2.6604773,-3.183022,-3.5349212,-4.0739059,-3.9431443,-4.6570627,-2.6477657,0
1.2216944,1.3272397,0.91740338,0.001564183,-0.52957846,-0.90174934,-1.1722373,-1.5515299,-1.7500599,-1.7660579,-1.3962561,-0.97954916,-0.70390133,-0.45586675,-0.38524847,-0.32238436,0.037808471,0.35668828,0.46998161,0.51485392,0.47064299,0.4317396,0.44856991,0.56926439,0.52271955,0.45718693,0.46993517,0.41474509,0.44123871,0.47081513,0.40626716,0.30490713,0.3129825,0.33061237,0.2962933,0.27507333,0.33231505,0.32533251,0.2786948,0.32599045,0.34189133,0.36458514,0.31923599,0.22730338,0.15329219,0.2376203,0.26577124,0.2083024,0.23927446,0.18457356,0.14876383,0.077684529,-0.020465147,0.04600937,0.12556637,0.066773854,0.041620502,-0.004055009,-0.069409418,-0.040521062,-0.065822279,-0.070253663,-0.037026873,-0.080564411,-0.060375705,-0.043242406,-0.076625956,-0.088462029,-0.077563457,-0.015965119,-0.001446446,0.015309055,0.075093104,0.094608342,0.075791628,0.10710619,0.10084536,0.16674528,0.23886218,0.24170478,0.34189133,0.3446338,0.37226011,0.41735531,0.4850866,0.58132019,0.55550629,0.50531984,0.52229633,0.53626193,0.57793605,0.6068236,0.54981192,0.62190676,0.55158511,0.54948878,0.64362038,0.5811251,0.61267977,0.59232668,0.55647743,0.59769562,0.61224399,0.67458958,0.67522677,0.6806039,0.71640352,0.70877326,0.73554188,0.75138963,0.72814632,0.68409735,0.72674718,0.70883186,0.74680486,0.78341772,0.82338302,0.85241148,0.77985781,0.71702798,0.53501882,0.44807278,0.47743929,0.41083068,0.25417823,-0.009899056,-0.31176231,-0.47961729,-0.79892165,-1.0877952,-1.1172942,-1.3735356,-1.6955507,-2.0207706,-2.7130309,-3.0112127,-3.9367123,-4.0126368,-5.0004792,-3.5959048,0
0.091376738,0.30613564,-0.054762227,-0.61954641,-1.0163286,-1.170417,-1.4039826,-1.5078578,-1.4496107,-1.1393885,-0.86057833,-0.74487579,-0.59658472,-0.45162938,-0.16763722,-0.078254068,-0.12084237,-0.12365439,-0.15362579,-0.14281749,-0.13328288,-0.16410067,-0.15294996,-0.13360189,-0.11256213,-0.14091386,-0.1588086,-0.18177335,-0.19007206,-0.20771989,-0.22441267,-0.21200606,-0.23640921,-0.1874741,-0.24442594,-0.2398124,-0.25799301,-0.23378928,-0.21435624,-0.25112706,-0.25238763,-0.2953786,-0.28762443,-0.28333118,-0.31214633,-0.34162019,-0.379365,-0.32987878,-0.36987237,-0.36574715,-0.37820992,-0.42195407,-0.41139459,-0.42970646,-0.39815301,-0.40594156,-0.38900064,-0.35094382,-0.38946272,-0.34058699,-0.32069206,-0.27732233,-0.25622676,-0.24104605,-0.21470836,-0.18712486,-0.098264096,-0.11371409,-0.12311297,-0.071276291,-0.077644744,-0.032240201,-0.010442333,-0.07126417,0.015026724,0.043210978,-0.009026866,0.006440026,0.014188555,0.023366115,0.027433752,0.043709285,0.074445828,0.1057703,0.062086764,0.098080261,0.10898387,0.10609906,0.094142216,0.11119173,0.11764747,0.13257775,0.13727062,0.11896669,0.16663668,0.16309406,0.16773041,0.14975557,0.17831902,0.24288642,0.23510882,0.25402798,0.3599897,0.34867678,0.32015969,0.43055301,0.45328692,0.5190772,0.56219871,0.73086953,0.84267953,0.95096651,0.9999171,1.0534714,1.1851585,1.4201956,1.5117886,1.6889395,1.7855382,1.9337827,2.2509054,2.3780396,2.5046608,2.7633919,2.8901185,2.7392766,2.2633109,1.9718031,1.506165,0.72798285,0.28218357,-0.18835321,-0.41773541,-0.73437356,-1.5422185,-2.3653269,-3.1028126,-3.4991592,-3.2747896,-2.7292313,0
1.0091706,0.75503277,0.39741853,-0.25120297,-0.65502786,-0.86050228,-1.1231294,-1.4140983,-1.5916915,-1.574159,-1.2717496,-0.91464708,-0.70331675,-0.46360813,-0.31818405,-0.22711297,-0.029023973,0.25126593,0.48196315,0.42860399,0.46253444,0.49051831,0.41633544,0.52028608,0.45156411,0.42505101,0.47406995,0.40352567,0.43220264,0.43710186,0.44911581,0.47928843,0.43453035,0.43760237,0.46973476,0.44435104,0.41825382,0.41541352,0.44615837,0.48840751,0.43127462,0.35904805,0.38150269,0.38596731,0.30734191,0.29939682,0.3699288,0.36745861,0.36186846,0.34342456,0.25973021,0.28946978,0.35453789,0.29119284,0.31129669,0.32890012,0.22747209,0.22333696,0.22004052,0.21940384,0.25157198,0.20027437,0.15513112,0.13937502,0.13944727,0.16605328,0.14093526,0.096576633,0.098258806,0.084880068,0.080592687,0.074775518,0.087022851,0.1512844,0.14704323,0.11376643,0.13132914,0.16248247,0.17163449,0.16952564,0.21902301,0.29479131,0.33824136,0.39047369,0.43220264,0.43108594,0.46359524,0.51372372,0.53643492,0.61176167,0.62546545,0.54299964,0.60348632,0.63147742,0.60066107,0.617939,0.59525366,0.66116527,0.65253403,0.66133016,0.73440074,0.71111975,0.76285066,0.71715618,0.67195561,0.71961807,0.66913788,0.66749883,0.73053125,0.7716325,0.7560751,0.7545845,0.76721627,0.71921244,0.71445627,0.68778488,0.6130711,0.53114614,0.42124118,0.3940944,0.37657343,0.2613908,0.14193533,-0.043288175,-0.27765756,-0.44599689,-0.71125994,-0.96485948,-1.0788255,-1.3047531,-1.6156414,-1.9953626,-2.4338032,-3.0224717,-3.3185232,-3.6916766,-4.3023829,-3.8693444,-3.7452,-1.9138822,0
1.133368,0.9137936,0.31418685,-0.40653976,-0.76010141,-1.1385412,-1.4841384,-1.7296104,-1.7537392,-1.5889358,-1.2682802,-0.87767864,-0.58455718,-0.52177311,-0.41353159,-0.078370708,0.29137393,0.44909788,0.38545808,0.35035059,0.37468569,0.36771636,0.36888032,0.36765186,0.34955495,0.35696644,0.43055198,0.3621208,0.31440332,0.33719507,0.32414764,0.33076931,0.32998371,0.35367914,0.36755305,0.32723171,0.32176952,0.36084518,0.25863336,0.2985835,0.32319672,0.25072901,0.17257409,0.20061311,0.26155787,0.15616273,0.21203317,0.17104306,0.063107172,0.15167427,0.13992662,0.063031453,0.079856599,0.039801215,0.035982333,0.040801823,0.026608597,-0.00365697,-0.054979465,-0.014606051,-0.054566171,-0.004539157,-0.007893272,-0.00137762,-0.079906284,-0.12360687,-0.021587463,0.017482339,0.046075993,0.04994643,0.10554423,0.084790185,0.13911329,0.14272809,0.20966075,0.27890582,0.30992976,0.3277797,0.34537814,0.3928838,0.39309193,0.45074591,0.42941999,0.42476185,0.45987888,0.51321053,0.54818007,0.56286666,0.62450395,0.65617606,0.64701699,0.62248871,0.58857997,0.63177723,0.65209788,0.64093218,0.71019405,0.67329694,0.72884768,0.76763005,0.66936863,0.69707647,0.76199304,0.714098,0.67401809,0.77060666,0.77585909,0.74695447,0.78436407,0.78562882,0.75157599,0.77500497,0.82919838,0.79340716,0.80885652,0.87705425,0.8715213,0.87264873,0.78544459,0.71943449,0.61113805,0.37891036,0.4506639,0.43441086,0.19566031,-0.03588143,-0.33585364,-0.59766287,-0.99455987,-1.2012467,-1.2615872,-1.5122346,-1.8849025,-2.25231,-2.8851774,-3.0885348,-3.8959841,-4.0089023,-4.5711232,-3.3415872,0
1.0634603,1.2169664,0.78650689,0.003885247,-0.41788545,-0.83780822,-1.2340695,-1.6638486,-1.8150199,-1.7046461,-1.3276377,-0.89662969,-0.64563672,-0.51189357,-0.475824,-0.21252555,0.3093967,0.44170514,0.46260114,0.44681232,0.38021168,0.39361239,0.37709174,0.45016597,0.45224806,0.43389077,0.41419459,0.42762612,0.47657411,0.43653239,0.38947642,0.40113264,0.38367078,0.41317178,0.38782238,0.29415064,0.34463918,0.3184136,0.2455037,0.2883039,0.24541813,0.30156139,0.25827279,0.20222331,0.19532051,0.19130112,0.19705235,0.15094679,0.13905825,0.14523295,0.13518991,0.035823597,0.052224827,0.049606638,-0.030721774,-0.078202491,-0.10349554,-0.11238227,-0.10284317,-0.074751723,-0.040693782,-0.085940808,-0.13003761,-0.065758062,-0.067623155,-0.11101835,-0.091655066,-0.091143931,-0.074078423,-0.054347467,0.025721392,0.053637647,0.047015806,0.11661704,0.11661491,0.12441159,0.20687384,0.28694548,0.24986151,0.28550043,0.38047489,0.38737577,0.36651932,0.4433061,0.47498915,0.45983911,0.51089527,0.51808174,0.54352801,0.55978445,0.55723594,0.60138264,0.58486811,0.57611765,0.52633085,0.61909129,0.71016767,0.71731722,0.71036056,0.60681611,0.65951638,0.68360523,0.6848868,0.7129465,0.67230838,0.77506679,0.67070675,0.71120399,0.76954957,0.73025349,0.7768886,0.75189553,0.82787583,0.83094838,0.83324333,0.83264728,0.85300262,0.8411015,0.80598478,0.75572644,0.64969479,0.40415606,0.34228845,0.35659422,0.23500102,0.0752896,-0.25183977,-0.53750193,-0.8462612,-1.1093017,-1.2689223,-1.3673336,-1.7093196,-2.0195434,-2.6964082,-3.0369514,-3.7969459,-3.9431119,-4.8555111,-3.8519928,0
1.1694292,0.87849344,0.43567809,-0.18680451,-0.59327087,-0.86538364,-1.0899548,-1.3975226,-1.6575778,-1.648313,-1.4042382,-1.016465,-0.67492531,-0.55771721,-0.48881695,-0.34121816,-0.13608505,0.20195156,0.45084749,0.45998245,0.46062877,0.4287394,0.38528069,0.43359607,0.46225784,0.44048321,0.47320188,0.49949757,0.42481861,0.45316736,0.44277756,0.45961276,0.59377579,0.47737682,0.41413834,0.4547908,0.36284107,0.35310237,0.34343235,0.31686019,0.42196701,0.40737982,0.31554236,0.3364055,0.32287937,0.30668151,0.31217057,0.28412779,0.27334501,0.32330629,0.24464773,0.17175329,0.2958663,0.24685844,0.15621206,0.19131133,0.18720925,0.13040836,0.073937789,0.16290675,0.19618442,0.11256608,0.074124242,0.10162593,0.10011205,0.065037892,0.13818746,0.075450485,0.034014819,0.12238886,0.038568871,0.067638586,0.19609327,0.13629725,0.10883206,0.22220735,0.24707037,0.21032294,0.26386671,0.33230994,0.35018949,0.34556668,0.37260596,0.45607752,0.50201907,0.48889034,0.53236671,0.55969837,0.55887519,0.55562841,0.53145686,0.61853434,0.66504799,0.60984906,0.62743124,0.67397613,0.6743373,0.63901687,0.64745132,0.69477884,0.67506965,0.63164921,0.687308,0.73632066,0.6825491,0.68734315,0.71828936,0.73456845,0.72699698,0.68619809,0.76539998,0.77653486,0.74537483,0.77348756,0.7667474,0.7523548,0.68785845,0.62464989,0.44943969,0.366453,0.40051043,0.30872566,0.21091914,-0.032032382,-0.22902796,-0.38725491,-0.65325977,-0.85170837,-1.0143478,-1.1736984,-1.4615176,-1.8527292,-2.1413004,-2.7111867,-3.2246451,-3.5363474,-4.1970055,-3.9569726,-4.1543816,-2.3474151,0
0.31341296,-0.11574309,-0.62078454,-0.93626792,-1.1750907,-1.4475613,-1.538253,-1.3773213,-1.0351642,-0.78179384,-0.72340079,-0.60146902,-0.29858388,-0.076661633,-0.008087008,-0.057753292,-0.052010127,-0.074424252,-0.062454507,-0.03854437,-0.067753339,-0.031713074,-0.048137468,-0.12496258,-0.07004806,-0.11853367,-0.1346334,-0.13138115,-0.12747779,-0.14497563,-0.16877299,-0.16099187,-0.16790937,-0.15138196,-0.17467831,-0.1426791,-0.19403702,-0.18716327,-0.22743855,-0.21727856,-0.18267421,-0.26705426,-0.2507378,-0.26486296,-0.25470215,-0.29430503,-0.31558026,-0.37274219,-0.32726383,-0.31494032,-0.34664167,-0.35436862,-0.3631732,-0.34127331,-0.32214205,-0.33232041,-0.33135888,-0.30027287,-0.29544028,-0.26059476,-0.25332917,-0.19789561,-0.1345865,-0.084686398,-0.089374237,-0.11292596,-0.078858043,-0.063118291,-0.026820696,-0.042895071,-0.05740262,-0.01046287,-0.012074303,-0.002792354,-0.004442241,0.012562878,0.081317996,0.054721931,0.014819908,0.007791325,0.010069135,0.012715563,0.027153581,0.051807327,0.060558069,0.030713431,0.018437045,0.040812343,0.042676421,0.081313106,0.085191501,0.087447682,0.096556188,0.074231438,0.12776875,0.097349175,0.18153252,0.14088819,0.13698143,0.20384845,0.22446688,0.23333802,0.23077392,0.22301634,0.22490137,0.26188433,0.28398692,0.34125061,0.36709298,0.47263559,0.64441545,0.75975317,0.8555508,0.91822679,0.96727384,1.1194148,1.2978175,1.4588117,1.5975662,1.7526715,1.9774632,2.2614188,2.4390964,2.6275697,2.8369919,2.8419999,2.5432017,2.1152335,1.8422712,1.1429045,0.45592377,-0.021973276,-0.3704703,-0.57715497,-1.2100999,-2.2876191,-2.9970163,-3.6763926,-3.7302109,-3.4632349,0
0.27826993,0.55716494,0.57645384,-0.11645922,-0.476147,-0.81464545,-1.0987882,-1.5833826,-1.8324264,-1.8448214,-1.6522826,-1.2822059,-0.95615276,-0.71227285,-0.51519121,-0.44657567,-0.18968323,0.19514254,0.31525268,0.39144554,0.36114108,0.25374223,0.25126426,0.30543304,0.30802732,0.23109912,0.30377757,0.41993406,0.3429646,0.29120644,0.32371245,0.35193336,0.31982014,0.30805336,0.36591758,0.4196561,0.46682385,0.37585806,0.36274694,0.33473024,0.39088708,0.41987975,0.27524432,0.28170262,0.24056801,0.22726423,0.28691461,0.2165666,0.16056312,0.20932806,0.27440079,0.21406943,0.093222023,0.11472047,0.091669363,0.059879015,0.1048706,0.018719148,0.018183815,0.024679955,0.03065347,0.095016724,-0.020252991,0.056473788,0.039878865,-0.010717827,0.05982862,-0.047783101,0.047140126,0.10160474,-0.065096478,0.041153648,0.040315272,0.027858879,0.13902063,0.12294256,0.16529292,0.22887347,0.28692055,0.3583629,0.35681388,0.41833812,0.45413004,0.44231829,0.52167043,0.53568477,0.55585969,0.64552025,0.62552715,0.59780658,0.65292944,0.73751809,0.72090618,0.7214304,0.79938191,0.74976396,0.72409204,0.76434204,0.7265526,0.76000717,0.79865453,0.76762528,0.76960679,0.7877849,0.78123519,0.78322054,0.83868361,0.8614486,0.87366737,0.82377592,0.77236532,0.83676075,0.91910467,0.92181917,0.90388035,0.94263754,0.94575277,0.94028692,0.81664192,0.66584189,0.53772387,0.46144928,0.49949894,0.31876579,0.025455545,-0.20551321,-0.46218894,-0.73773648,-0.98472258,-1.1339791,-1.340001,-1.6721629,-2.0111572,-2.4715913,-2.9707749,-3.2104171,-4.0144898,-3.9699655,-4.2468953,-2.584042,0
0.38952014,0.26890999,-0.16403289,-0.52972435,-0.77582134,-1.1065438,-1.3026946,-1.3370149,-1.1638618,-0.88784998,-0.68310092,-0.5606127,-0.4652509,-0.23154868,0.022567228,-0.025703967,-0.074049747,-0.042024308,-0.050931601,-0.023899772,-0.067513773,-0.047792574,-0.067789051,-0.089025047,-0.033981498,-0.10782128,-0.055964392,-0.09633124,-0.10168782,-0.14847587,-0.092484575,-0.16414092,-0.18771342,-0.14631994,-0.18574907,-0.16396346,-0.15877696,-0.2117882,-0.2228568,-0.21144744,-0.26052572,-0.26613181,-0.26714889,-0.32037647,-0.29801091,-0.33951139,-0.3648548,-0.36628471,-0.38526841,-0.41631867,-0.44251085,-0.4465918,-0.44172107,-0.40241372,-0.41298533,-0.43547655,-0.42745018,-0.41249982,-0.40398699,-0.41503189,-0.40862627,-0.33837807,-0.32625007,-0.31713253,-0.31412603,-0.26895594,-0.20458069,-0.17521389,-0.11922664,-0.13241887,-0.11082956,-0.066363994,-0.067266725,-0.022495972,-0.035073632,-0.046896214,-0.06048645,0.012371303,-0.051596044,-0.013486156,0.002981908,-0.000380371,-0.008151072,0.040102891,0.025557229,0.068085323,0.046197375,0.041111899,0.041593016,0.030134352,0.069793245,0.096248208,0.12797564,0.11957171,0.10006937,0.14756462,0.14461217,0.18141701,0.1716014,0.20123839,0.20119838,0.25233376,0.25549753,0.28753918,0.30390017,0.34311033,0.43267092,0.53629739,0.58535908,0.67717569,0.78333606,0.94109758,1.0430809,1.045249,1.23283,1.4445491,1.5569087,1.6326687,1.7979576,1.9593283,2.2336469,2.3907222,2.553155,2.7322235,2.7946227,2.6631384,2.2456238,1.9584572,1.5405305,0.72437985,0.042574614,-0.33618994,-0.56110611,-0.83663325,-1.6027211,-2.5361495,-3.0501397,-3.5524746,-3.4898859,-2.9757626,0
0.82111931,0.86076639,0.24623668,-0.40794012,-1.0026463,-1.1810581,-1.5973525,-1.7757643,-1.7955879,-1.3792935,-1.0026463,-0.74494028,-0.56652843,-0.50705781,-0.17005765,0.16694252,0.26606021,0.28588375,0.30570729,0.26606021,0.34535437,0.30570729,0.26606021,0.30570729,0.24623668,0.28588375,0.30570729,0.32553083,0.22641314,0.24623668,0.24623668,0.24623668,0.22641314,0.24623668,0.16694252,0.14711898,0.1074719,0.14711898,0.1074719,0.1074719,0.2065896,0.12729544,0.1074719,0.12729544,0.067824823,0.12729544,0.008354206,0.1074719,-0.031292872,0.008354206,0.008354206,0.008354206,-0.051116412,-0.11058703,-0.13041057,-0.13041057,-0.11058703,-0.070939951,-0.13041057,-0.13041057,-0.09076349,-0.011469333,-0.031292872,0.008354206,-0.011469333,0.028177745,0.067824823,0.048001284,0.12729544,0.087648362,0.2065896,0.26606021,0.22641314,0.34535437,0.34535437,0.34535437,0.40482499,0.44447207,0.42464853,0.46429561,0.42464853,0.48411914,0.46429561,0.50394268,0.52376622,0.50394268,0.64270746,0.62288392,0.60306038,0.58323684,0.54358976,0.62288392,0.64270746,0.64270746,0.64270746,0.662531,0.72200161,0.72200161,0.64270746,0.62288392,0.662531,0.72200161,0.70217807,0.72200161,0.70217807,0.72200161,0.82111931,0.80129577,0.78147223,0.84094285,0.82111931,0.82111931,0.84094285,0.88058993,0.86076639,0.90041347,0.88058993,0.90041347,0.86076639,0.90041347,0.80129577,0.62288392,0.42464853,0.34535437,0.36517791,0.32553083,-0.011469333,-0.40794012,-0.62599905,-0.92335213,-1.1414111,-1.2405288,-1.5378818,-2.0136468,-2.5885294,-3.0841179,-3.639177,-4.3131773,-4.7294716,-3.9960007,0
0.70593122,0.85248173,0.81103532,0.15946692,-0.21495369,-0.53779261,-0.75388242,-0.97465992,-1.2528652,-1.3895729,-1.4360376,-1.3262881,-0.99993742,-0.6042391,-0.32541029,-0.15776588,-0.041261124,0.044618297,0.19808778,0.49102236,0.67138334,0.63286866,0.60098315,0.51818403,0.49927114,0.61956151,0.62785511,0.6142081,0.57830574,0.58691629,0.68865728,0.64271625,0.60191132,0.62737747,0.56806313,0.55046574,0.53562493,0.48532033,0.63097588,0.71672561,0.58501363,0.5538324,0.49729078,0.43383539,0.50146201,0.51591786,0.47392539,0.4620325,0.50206534,0.43334267,0.34317844,0.41700037,0.41176424,0.35806435,0.30992971,0.27408267,0.35378898,0.31121867,0.23731051,0.26393694,0.25680873,0.28435288,0.28551311,0.23130482,0.19963112,0.17043902,0.15559205,0.14746117,0.12401973,0.096363883,0.084069308,0.074412052,0.044743636,0.02690958,0.014156284,0.049521423,0.10436603,0.076997903,0.13094522,0.21569371,0.18771296,0.20979191,0.23740266,0.21495111,0.25487025,0.27408267,0.27670464,0.35776309,0.37060197,0.37504502,0.48136998,0.4941149,0.47277715,0.53435931,0.54662245,0.5331918,0.58813237,0.62425393,0.61608387,0.62458531,0.63683545,0.62525479,0.62695574,0.68474686,0.65266931,0.61956151,0.7268338,0.71185791,0.66519938,0.72135663,0.74047911,0.73328079,0.68719807,0.67210129,0.60749004,0.44682209,0.37392027,0.3113668,0.25842477,0.22578541,0.084069308,-0.074225004,-0.17920428,-0.31816383,-0.52740588,-0.83144962,-1.0683138,-1.1058066,-1.2810211,-1.5680493,-1.8506122,-2.3437926,-2.828429,-3.3241602,-3.6300606,-3.9753071,-4.2154322,-3.5355393,-2.815062,-0.87223883,0
1.1883797,0.7905128,0.093375424,-0.49061768,-0.86614455,-1.2709078,-1.5749534,-1.5662423,-1.3027829,-0.8588758,-0.55039901,-0.42338674,-0.27486777,0.075514805,0.38228077,0.3958917,0.43252278,0.34802619,0.39888093,0.37913168,0.31986989,0.36191651,0.33508641,0.4159334,0.40556618,0.35337734,0.36291029,0.32962693,0.27725041,0.27260395,0.27647827,0.23801958,0.25532093,0.2156757,0.22200544,0.24439247,0.24431499,0.18340583,0.17982915,0.14670595,0.14275262,0.0916216,0.12241377,0.048900711,0.014051322,0.066222367,-0.025410242,-0.010871415,0.002873198,-0.11552754,-0.040773349,-0.083547913,-0.06578817,-0.070983915,-0.099384159,-0.10809904,-0.13855657,-0.068976063,-0.15413225,-0.073432965,-0.058221737,0.089111424,0.032297954,0.082629295,0.16248938,0.24241779,0.26021583,0.30957269,0.27976398,0.26045639,0.40472694,0.37366421,0.44133114,0.41960174,0.42887674,0.38430251,0.43401811,0.45771727,0.54835498,0.45409177,0.50708976,0.47934535,0.52585269,0.51231515,0.44783899,0.54389315,0.49734223,0.47484421,0.54729355,0.57153491,0.58461842,0.52773089,0.55435455,0.56118653,0.55949656,0.56181976,0.6500121,0.63286526,0.66769188,0.71239195,0.71281529,0.76408468,0.74490065,0.76602271,0.77229267,0.78003551,0.79998898,0.73338189,0.79054831,0.83497001,0.70437927,0.75111173,0.73329036,0.70797051,0.73355382,0.73319395,0.65742872,0.71371479,0.68097036,0.63939806,0.46463926,0.29444771,0.22163789,0.24190631,0.078846865,-0.18829934,-0.39560232,-0.7140231,-1.0475294,-1.2864535,-1.4426099,-1.7118268,-2.0784836,-2.6011711,-3.098418,-3.5364743,-4.3966757,-4.6122273,-3.7882924,-2.6633602,0
0.72307887,1.0970611,0.79767764,0.027186266,-0.49353696,-0.9833637,-1.1357989,-1.4657096,-1.7205359,-1.7742627,-1.5336517,-1.048534,-0.71235511,-0.51669593,-0.43591982,-0.38259472,-0.056666549,0.27661764,0.39139611,0.41749621,0.38087331,0.37841291,0.39021295,0.32811904,0.34511552,0.40075912,0.30539142,0.30933239,0.35120049,0.35453314,0.33919464,0.34862017,0.43135394,0.40300462,0.41900597,0.3918565,0.26775854,0.32977122,0.28554562,0.36338787,0.28846373,0.2541258,0.3416382,0.23541705,0.23103098,0.22721946,0.22408265,0.14577192,0.12300145,0.12264117,0.12986808,0.10281032,0.12379658,0.099357715,0.10225284,0.14267617,0.066101363,0.039611037,0.040901495,0.080625897,0.050299067,0.016760271,0.047782226,0.081582389,0.072873843,0.060260048,0.058865464,0.037615817,0.071482961,0.078510336,0.060634126,0.10225276,0.093542154,0.21013852,0.27116388,0.21994061,0.2470839,0.23913551,0.2763641,0.40274987,0.45578899,0.4315025,0.41236588,0.46443303,0.53479127,0.50035226,0.45422707,0.52994186,0.56666435,0.59675766,0.58375515,0.56872414,0.64499792,0.59705544,0.59636685,0.62069235,0.63168876,0.65323478,0.6145028,0.65820404,0.6734451,0.63296345,0.64581459,0.66787826,0.67994017,0.66097467,0.72045286,0.69254062,0.68642635,0.74007491,0.73684717,0.71094833,0.70296294,0.70766746,0.76473057,0.80576825,0.78606951,0.8260773,0.78009497,0.65100009,0.50374774,0.39190648,0.42861248,0.39367642,0.20910689,-0.011024118,-0.29309422,-0.59733967,-0.87811892,-1.0300902,-1.1696055,-1.4297552,-1.7579245,-2.1567452,-2.8444088,-3.0940373,-3.9207349,-4.1301767,-4.8607005,-3.5567884,0
0.95767176,0.78039476,0.18496871,-0.35417443,-0.62980329,-1.079427,-1.5146735,-1.8354692,-1.8151205,-1.5432531,-1.1593632,-0.89410113,-0.58033392,-0.48955157,-0.41209211,-0.00654356,0.36658261,0.40331408,0.38532405,0.42287395,0.38460586,0.40465598,0.42466969,0.43588449,0.44065439,0.38315268,0.40550578,0.36060602,0.42289839,0.35215404,0.33003651,0.37383715,0.31776355,0.38395826,0.42410867,0.33858272,0.35466344,0.32647528,0.21297651,0.3341838,0.32770641,0.32039655,0.26607976,0.22866454,0.28023042,0.21716427,0.19029517,0.15032944,0.10002939,0.052763788,0.024939866,0.084854668,0.025716874,0.039389108,0.00322691,-0.057784253,-0.065795233,-0.048520571,-0.038757361,-0.003269283,-0.094961493,-0.21424585,-0.11434974,-0.10815566,-0.14734231,-0.19301204,-0.15021455,-0.1608258,-0.066518759,-0.071480284,-0.092074843,-0.012611024,0.020910662,0.1041158,0.074876794,0.09581956,0.19364874,0.23261278,0.25602977,0.23626883,0.28395825,0.37946409,0.38177918,0.45656614,0.48196942,0.4469648,0.50825071,0.53611486,0.5790827,0.55256655,0.52558493,0.64917911,0.6345727,0.60866436,0.63151686,0.66969445,0.72257993,0.72804335,0.75158158,0.70453309,0.63479151,0.68782833,0.74492505,0.70514613,0.74744848,0.8038685,0.73866153,0.79914578,0.76985478,0.79079627,0.92924887,0.87292707,0.91667664,0.95222861,0.87070799,0.93164633,1.0045424,0.96079285,0.94784104,0.79742015,0.70763475,0.55768293,0.41418878,0.4282308,0.32057661,0.098209825,-0.1744477,-0.41169117,-0.80408493,-1.0870094,-1.2279178,-1.5067253,-1.7995206,-1.9956765,-2.6843364,-3.0082226,-3.8209679,-3.9876822,-4.7248372,-3.6173168,0
0.39993116,0.27693952,-0.23850315,-0.84278506,-1.0829725,-1.3057181,-1.5673498,-1.566961,-1.3301839,-0.96482122,-0.78075955,-0.6723809,-0.57138563,-0.2596577,-0.075415183,-0.10233197,-0.057781486,-0.036868287,-0.050293245,-0.05167451,-0.096753022,-0.077530577,-0.085316004,-0.051865289,-0.059094016,-0.077410254,-0.080817006,-0.11134966,-0.10611532,-0.13913333,-0.13072817,-0.14479021,-0.14087756,-0.13648741,-0.10203499,-0.20200148,-0.2085521,-0.15735408,-0.19633845,-0.22072056,-0.21118131,-0.27969085,-0.27268813,-0.27973983,-0.27626124,-0.30121491,-0.29954755,-0.3409369,-0.33567911,-0.26538335,-0.33044215,-0.35858194,-0.29314383,-0.34204938,-0.28309086,-0.3235504,-0.25276395,-0.21120804,-0.19482753,-0.17649178,-0.15891409,-0.16573477,-0.15724004,-0.097185481,-0.086619506,-0.030349181,0.019440555,0.007481049,0.03357401,0.060878918,0.01420813,0.02467393,0.017500802,0.049342194,0.053791556,0.059328266,0.084490816,0.036602389,0.066556673,0.0390567,0.02608905,0.09389167,0.081359344,0.092370139,0.13015852,0.10706399,0.07062657,0.10772872,0.12549157,0.093445221,0.10314653,0.13942456,0.150626,0.13379847,0.18353951,0.2088289,0.24212397,0.25416049,0.20630919,0.26583257,0.28845342,0.27743392,0.29454255,0.27058222,0.27683964,0.30434181,0.30458215,0.25670267,0.37803531,0.46010836,0.55766977,0.66773767,0.8100469,0.89486058,0.94470625,1.0392522,1.1797422,1.3540318,1.5534528,1.6788842,1.8557126,2.0861354,2.2687835,2.4524178,2.6365356,2.7057218,2.587757,2.153429,1.7428778,1.3727102,0.53602925,-0.18616076,-0.68189419,-0.86563752,-1.3957744,-2.5573408,-3.2508304,-3.7327248,-3.7332816,-3.4386547,0
1.0271945,1.1974229,0.80290988,-0.057233292,-0.59484481,-0.98075625,-1.2630267,-1.5992592,-1.7754426,-1.7992471,-1.4995396,-1.0464553,-0.7228086,-0.51631058,-0.38325052,-0.24936175,0.077290935,0.38249286,0.51342559,0.57309158,0.50942109,0.46866565,0.47096845,0.45713132,0.43166086,0.44277105,0.487405,0.48134881,0.43963093,0.42816955,0.44728828,0.48388981,0.50116186,0.43591148,0.44317342,0.43623271,0.43127515,0.37395233,0.33323821,0.4078884,0.32302267,0.33574121,0.34540014,0.26953503,0.34923612,0.3195332,0.20628366,0.24266133,0.2897227,0.30218417,0.26088987,0.15101624,0.098367827,0.20997823,0.16557132,0.096515484,0.080093233,0.024765068,0.066781162,0.073546041,0.095202385,0.10376595,0.008222894,-0.034576007,-0.076344847,-0.027749581,-0.028489533,-0.06548206,-0.026086635,-0.048476859,0.012358644,0.067663386,0.13610569,0.072654972,0.001407267,0.048266474,0.14511007,0.20358611,0.14623994,0.19259377,0.34373361,0.38937013,0.36022862,0.41168528,0.44071299,0.46440071,0.46746279,0.51272402,0.48664162,0.40912964,0.50942109,0.51081755,0.53136437,0.49467751,0.52874884,0.54336256,0.54439072,0.53288956,0.52874693,0.63828147,0.59226483,0.63062737,0.58925127,0.5724248,0.623747,0.66183637,0.70319413,0.62368778,0.63229472,0.72089759,0.67510857,0.66894451,0.73113801,0.74079573,0.74527786,0.7768487,0.7798623,0.81937476,0.80361078,0.68293817,0.53013203,0.35311178,0.34894266,0.2671164,0.16096887,0.024919716,-0.21902261,-0.51132369,-0.89255966,-1.0719647,-1.1060319,-1.346804,-1.7574969,-2.0385631,-2.7171607,-3.0195566,-3.8344607,-4.0645175,-4.9892097,-3.673728,0
1.0310148,0.80662708,0.46340569,-0.19685066,-0.55296086,-0.74266637,-1.0087454,-1.2589487,-1.3786657,-1.4172956,-1.2870337,-0.95818535,-0.64774583,-0.39367156,-0.30324614,-0.28577934,-0.12506225,0.086318989,0.37702207,0.57782102,0.55152771,0.55682694,0.57616803,0.50555857,0.47149129,0.52156453,0.54244406,0.50148721,0.47418246,0.47865322,0.49589807,0.5071601,0.49397965,0.49351404,0.5271984,0.51369417,0.4707452,0.47139793,0.47367984,0.47646183,0.46320611,0.41497616,0.38729753,0.37310114,0.36163773,0.34267979,0.33282074,0.31806804,0.2930453,0.32643051,0.32291168,0.32463659,0.38441455,0.32746903,0.2515787,0.24241306,0.19974889,0.21078966,0.27751095,0.24683965,0.18495909,0.1757104,0.1565593,0.14056418,0.15273269,0.1638235,0.15205243,0.12031701,0.10571759,0.10865166,0.10725632,0.13932918,0.13470827,0.0886533,0.12576664,0.14916327,0.13979795,0.14059247,0.15523713,0.22874775,0.26624022,0.30868299,0.35318983,0.31530894,0.33298838,0.40296819,0.42880036,0.4460261,0.49136085,0.4991514,0.45360489,0.49106148,0.55542835,0.53992773,0.52482386,0.53404618,0.56125885,0.58772397,0.63739362,0.65353553,0.58275963,0.61899792,0.67418593,0.64274794,0.64610491,0.65623853,0.70765608,0.72716456,0.6255762,0.62694769,0.71655685,0.67299308,0.65802685,0.70847125,0.69890295,0.66544862,0.56636411,0.49367505,0.3715971,0.24315127,0.27963755,0.20975249,0.058939532,-0.089350096,-0.25739091,-0.36299103,-0.57364356,-0.82729181,-0.97469848,-1.1032603,-1.346578,-1.7383558,-2.1050321,-2.7446412,-3.1246758,-3.5130104,-4.0632381,-4.0184625,-4.791977,-2.7617223,0
1.3038186,0.85987006,0.18951022,-0.48469034,-0.92778586,-1.3003189,-1.662319,-1.8215978,-1.7524076,-1.263188,-0.87499681,-0.64894588,-0.49262192,-0.41471525,0.03378104,0.33261913,0.45255991,0.40569468,0.39754964,0.40126014,0.39032782,0.42111047,0.39379908,0.43657827,0.38868071,0.38691939,0.39150425,0.37306394,0.37240753,0.3497789,0.3534624,0.28122662,0.26207826,0.32099664,0.24253395,0.24785472,0.28962914,0.27375087,0.25765436,0.18301597,0.20926726,0.18706029,0.23025596,0.10908509,0.066292095,0.14342631,0.060021853,0.12320154,0.06411833,-0.002995363,-0.000930901,-0.040607552,-0.082828875,-0.10682366,-0.10928779,-0.090628557,-0.11057921,-0.19219813,-0.14161737,-0.15207685,-0.19417583,-0.20121367,-0.21571116,-0.12825864,-0.10593804,-0.10302306,-0.13771118,-0.11283242,0.041225762,0.084632432,0.029007321,0.054220816,0.22873657,0.25983543,0.27386772,0.31798971,0.32269509,0.32444441,0.33084375,0.38073838,0.38504378,0.38474421,0.37028123,0.47560769,0.45308293,0.4366416,0.44953003,0.53047394,0.5229342,0.54761348,0.54401329,0.54577425,0.56687047,0.56598742,0.58592504,0.65158681,0.56868365,0.60359174,0.61086541,0.59021409,0.57994565,0.64782617,0.59748363,0.62696105,0.68226726,0.64204535,0.70035587,0.73644391,0.8102104,0.80027244,0.81869934,0.78455199,0.81587241,0.82092812,0.82450678,0.92190355,0.86639282,0.87973405,0.86082654,0.83787917,0.77470399,0.62870679,0.41005311,0.36035616,0.44665733,0.33149704,0.12414909,-0.22296195,-0.49641347,-0.8488047,-1.0956259,-1.2627411,-1.5346392,-1.8431989,-2.3911297,-2.8324375,-3.5122323,-4.0688932,-4.8873111,-4.6852832,0
1.3239098,1.0675117,0.54254268,-0.11985321,-0.55582874,-0.93022472,-1.2642365,-1.5062196,-1.5813662,-1.4014019,-0.9576632,-0.50052264,-0.36616565,-0.25756796,-0.19696855,0.067525217,0.44017082,0.53740699,0.52125856,0.50650865,0.52149882,0.54974738,0.47759184,0.43294114,0.50573091,0.52917178,0.53247739,0.49475784,0.43897865,0.4394441,0.45943619,0.44057992,0.44201327,0.49566276,0.42003786,0.3734841,0.43393867,0.38994692,0.43937561,0.35522838,0.37549305,0.34770319,0.32209244,0.43093342,0.35029154,0.28541612,0.21705319,0.23743005,0.2348468,0.28057738,0.18555536,0.11509578,0.19308122,0.21897379,0.15145045,0.18859619,0.17378332,0.062416044,0.14244446,0.088617406,0.045924769,0.025766335,0.063271644,0.085385774,0.038452914,0.028122575,0.097651536,0.10848269,0.066525593,0.12462223,0.082537457,0.077714559,0.14719868,0.20938809,0.23938603,0.29971219,0.30987828,0.30005988,0.32435224,0.3733057,0.43766439,0.45350174,0.50845632,0.46325615,0.43367555,0.51388856,0.46343716,0.47034446,0.4426918,0.47082872,0.5525269,0.48030576,0.53912722,0.52634315,0.48837414,0.51395645,0.45963266,0.48251358,0.53709981,0.51758996,0.55738079,0.58814642,0.5286058,0.51712967,0.57051055,0.54805208,0.4759507,0.50301035,0.61678001,0.52367561,0.58196827,0.65150742,0.59839245,0.66794971,0.62723496,0.61328187,0.66622323,0.62818103,0.58830057,0.52034381,0.25781641,0.19096733,0.23281697,0.15560216,0.01103798,-0.25616052,-0.5130542,-0.81469592,-1.1881479,-1.3508564,-1.4183706,-1.7327039,-2.1185878,-2.4961123,-3.0846935,-3.2714342,-4.09116,-4.165711,-4.5368671,-3.3279747,0
1.0342466,0.95474464,0.75190118,0.17954236,-0.19742802,-0.58176432,-0.76689735,-0.98806588,-1.2087072,-1.2687452,-1.2821727,-1.0865327,-0.79441254,-0.55004679,-0.29900317,-0.20919839,-0.21782427,-0.020686423,0.23196005,0.4525753,0.49951729,0.39735449,0.4952277,0.53824073,0.51157751,0.52553025,0.4787234,0.51768244,0.51878739,0.48988922,0.49200164,0.44481457,0.45377587,0.48950899,0.50416969,0.51082131,0.4757595,0.46055273,0.46487335,0.40711322,0.3860163,0.41383447,0.37054313,0.37935774,0.47393709,0.45734824,0.41249464,0.41568387,0.3614257,0.35371946,0.36568387,0.3688783,0.36608605,0.29046942,0.32000266,0.34159258,0.26853657,0.26606011,0.28143608,0.28337393,0.23785224,0.22454995,0.24912522,0.20560323,0.2359287,0.2791954,0.20704341,0.2066819,0.25239751,0.21084197,0.20574043,0.148984,0.068338163,0.14244415,0.19793718,0.21754611,0.23692329,0.21478816,0.23175884,0.24098295,0.2233329,0.25890715,0.30792173,0.33100775,0.37121772,0.40442783,0.42360624,0.43402589,0.48120792,0.53155262,0.49517256,0.52962195,0.55701402,0.52887405,0.58613194,0.59595396,0.61143808,0.62010243,0.59454402,0.63902258,0.63196671,0.64617526,0.6848295,0.6732839,0.66030229,0.64783807,0.70162513,0.68979862,0.68570995,0.72470947,0.63982902,0.65357204,0.66299423,0.60028035,0.55833385,0.37442828,0.2758398,0.34254768,0.36384475,0.30964476,0.18059722,0.04083345,-0.084236213,-0.28640217,-0.54469504,-0.75653411,-0.88245295,-0.96202865,-1.1871206,-1.5367581,-1.9865373,-2.6377502,-3.1137362,-3.4986458,-3.7858734,-4.1764081,-4.2132151,-3.1608856,-2.6954228,-0.96591489,0
0.77197958,0.61493655,0.56216264,-0.36984711,-0.64057264,-1.2806236,-1.7072734,-2.175061,-2.1755121,-2.132769,-1.6284819,-1.1667518,-0.74719149,-0.65703351,-0.57728278,-0.34159761,0.025362921,0.20742592,0.20409739,0.23470532,0.28181871,0.28862098,0.23985684,0.2961264,0.24090015,0.23256052,0.24509337,0.24592894,0.28438331,0.26010083,0.24233774,0.26214814,0.16455836,0.15867406,0.28363211,0.29471254,0.267137,0.14517196,0.21287589,0.2292225,0.21091626,0.29217815,0.17687369,0.16022295,0.161755,0.076624152,0.14051064,0.11817286,0.098211985,0.086154385,0.067618399,0.045539393,0.049522362,0.01538309,-0.022042235,-0.022034359,-0.035804395,0.028313295,0.056399275,0.02080668,-0.018313722,-0.005164647,0.006111968,0.005627422,0.058263352,0.075995674,-0.009341336,0.030895116,0.072450498,0.018882335,0.075965146,0.1285889,0.22028161,0.16125518,0.24319337,0.26685062,0.27020913,0.37350369,0.39006648,0.45075588,0.45712596,0.45414304,0.45301407,0.51336758,0.51152267,0.56902195,0.55361092,0.55640996,0.5812372,0.60308824,0.70417313,0.71392172,0.71474918,0.6712614,0.66899728,0.75071045,0.75208403,0.78225451,0.74121172,0.77681755,0.76979001,0.71496482,0.73399359,0.72498122,0.84368417,0.87141021,0.85638421,0.81574462,0.88155132,0.95322848,0.91410458,0.97980459,0.94205892,0.97985062,1.0743978,0.98710074,1.0559925,0.95860298,0.81473971,0.83251354,0.69721437,0.65731175,0.66327421,0.47357314,0.28950635,0.028013313,-0.25444007,-0.56105724,-0.80108732,-0.8654217,-1.1749499,-1.4185889,-2.0214967,-2.4835506,-3.1064314,-3.2824573,-4.3086116,-3.6234669,-3.7722178,-1.8066677,0
1.4980488,1.6994656,1.5005057,0.98999784,0.44194564,0.11715958,-0.17996766,-0.62010487,-0.82172963,-0.80575373,-0.58403025,-0.15444038,0.013802717,0.12189393,0.18576064,0.35242196,0.73280124,0.86623594,0.88999051,0.89725835,0.89126454,0.86284385,0.82746517,0.91833239,0.89432676,0.85209049,0.82205673,0.77371453,0.76733774,0.78397221,0.76768978,0.68598453,0.67772159,0.64428818,0.63961448,0.71034973,0.61415603,0.57550749,0.63815975,0.61057563,0.52954301,0.49650669,0.4794513,0.50800685,0.42696578,0.38940853,0.3677943,0.35586688,0.42783362,0.3152385,0.24072996,0.28960456,0.29669988,0.20335815,0.1863581,0.17083748,0.096505402,0.10256669,0.063801027,0.04916251,0.05153014,0.053643919,0.10835795,0.01963027,-0.024400741,-0.023877734,-0.000280363,0.021265933,-0.031333595,-0.023929375,-0.006550367,-0.026002511,0.03904067,0.052812864,0.07466355,0.16274594,0.12277746,0.12171239,0.17223429,0.16355406,0.16177804,0.20465583,0.20701396,0.25976514,0.25841973,0.25687487,0.30839812,0.22523188,0.22941619,0.24003551,0.20533486,0.26708037,0.26427596,0.26522462,0.26500694,0.22285845,0.2711468,0.25184456,0.23227285,0.28029892,0.25022544,0.22346989,0.23982499,0.26081862,0.18694431,0.17874075,0.18649097,0.12749219,0.23199801,0.22315126,0.18435193,0.25142598,0.21642691,0.20671053,0.20900763,0.2412143,0.19430565,0.20982378,0.13436597,0.028087972,-0.032570368,-0.15205425,-0.19939892,-0.28733572,-0.50075191,-0.72981475,-0.97921049,-1.2725743,-1.5350951,-1.6480739,-1.775608,-1.979492,-2.3667972,-2.6606424,-3.2139035,-3.4810422,-4.0256077,-4.1010569,-4.1498702,-2.8934585,0
